Altitude (m),Airspeed (m/s)
4262.7155727520585,67.8093281938767
4253.988930600695,63.14096966157203
4245.748541916721,62.66442308755896
4235.025125036947,62.19291774874684
4227.059614411555,62.794104323455166
4219.0657011680305,63.300910582868525
4209.047550142743,63.86002340037635
4202.655836923048,64.38077795481254
4191.16529867053,64.94176521973998
4183.564746630378,65.37112352758894
4175.924682705663,65.78755263864245
4166.796242837794,66.26307659112628
4156.555307357572,66.78311689600159
4147.748885855079,67.2100787017493
4136.1447781147435,67.74612115652378
4126.824159927666,68.17102560771184
4117.307048804127,68.59766087904383
4107.6143856626,68.99860835565293
4095.914821925573,69.4671611492686
4085.7332109594718,69.86690341912039
4075.5230467021465,70.24143630680777
4066.7159558748826,70.56841268429295
4054.7238592859358,70.99017210011925
4044.6161767225713,71.32701406662459
4033.9698381461203,71.67156534470115
4023.5666688494384,71.98715168663539
4012.4054800057784,72.33001938805167
4001.572435167618,72.6345865731512
3990.414773077704,72.94492684184279
3978.5687157558277,73.25832997997536
3968.274118345231,73.51925239651828
3956.0115333590657,73.81431850469119
3945.924809497781,74.05087199997449
3933.827321187593,74.31724611661917
3923.140759873204,74.54743539668966
3911.567507711239,74.78192514049788
3900.0260870056227,75.01458116077386
3888.254928882234,75.23528491604547
3877.8132138615474,75.42120154287741
3866.694126751274,75.6153975666819
3854.40375387948,75.8176289926874
3843.337789378129,75.99251158035209
3830.598057543859,76.18644592217329
3818.6950767571107,76.35765990627381
3808.264234792441,76.50105692245415
3797.6117459982634,76.6399379368177
3785.55365789216,76.79295425435764
3773.136984693818,76.9380663369891
3761.4502767166123,77.07053773381794
3751.2472580997273,77.18164935600821
3739.6521665407345,77.2997908691009
3727.7392072370276,77.41671426467565
3715.9469320336357,77.5296240755828
3703.6775870919228,77.63661816916665
3689.3897476065904,77.75596659921607
3676.156163333915,77.85976720594572
3661.3380446033552,77.96507741870623
3647.3243983760476,78.06231637805772
3631.4088228745386,78.16171062965293
3615.7957308106124,78.25217051360777
3599.1735896384344,78.34048299798764
3583.8674162048846,78.41355733876429
3568.6670870753005,78.48252421261003
3557.084803824313,78.52965677278883
3548.1564341671765,78.5604879477494
3536.81423152145,78.60419563831458
3526.412680497393,78.63885843817377
3515.4655724978074,78.67263683425338
3506.0045989723876,78.69923764672176
3494.5761187011376,78.72904104233449
3485.5446153245866,78.75136352399954
3476.1467667715624,78.77180190881914
3466.192612208426,78.79201044603626
3454.4547361461446,78.81383745271104
3443.4895246764645,78.83142646877916
3432.4062225036323,78.84744088084719
3420.9869941323996,78.8613193492262
3412.5160519443452,78.87030083546125
3401.277067489922,78.88064924930939
3390.9715903466567,78.88820471836087
3379.950711914338,78.89433795116642
3369.7092316439375,78.89856916255627
3358.288444218226,78.901588474827
3348.178571878001,78.90267048098956
3337.135772750713,78.90231291220371
3327.835477246903,78.90079628285511
3317.232674085535,78.89776149214488
3305.5401751725003,78.89277788248873
3294.646774591878,78.88667939349281
3283.7141908304766,78.8793957401906
3273.2643157606944,78.87089989149631
3261.6704566637054,78.86013811859596
3250.7483630115166,78.84915630500981
3240.475415072404,78.83713448016806
3228.0344399018213,78.82226715768779
3216.911406921223,78.80717777271528
3207.3065448738635,78.79307034168838
3197.3329089637846,78.77774540506077
3186.1956817256287,78.7596966775691
3175.0679582785815,78.74058296678879
3164.2002579681575,78.72088311307272
3153.4760167403147,78.70041103067025
3142.378702775575,78.67917207209271
3131.025181540288,78.65570973538884
3119.985183324665,78.6323860475784
3110.6139838835225,78.61319606135554
3098.6306357663125,78.5852789479743
3087.9377550790086,78.56069380590996
3076.978356095962,78.5347032040997
3064.303862906061,78.5030581291218
3052.8822439955547,78.47472663769908
3043.1770230969414,78.44953933273622
3031.1147526605055,78.41709584236658
3020.4428353067487,78.38883089426447
3009.619365999475,78.3591944598036
2998.6522379666567,78.32851989257469
2987.304003994912,78.29629220274559
2976.573103168048,78.26605473247791
2965.622113336809,78.23393487190599
2954.8617430338636,78.20268883113422
2944.2166687669232,78.16905302566146
2933.9293468603864,78.13838468462863
2923.0233120033517,78.1041413498147
2912.0152328247204,78.07014027509648
2901.258968695067,78.03607490261659
2890.92849458009,78.00260137286615
2879.8932126685977,77.96690279501316
2868.9945708094165,77.9309992093559
2858.2727512661368,77.89586366438945
2847.409854600206,77.86008996398746
2836.001988844946,77.82192873831924
2825.474247143604,77.78622053538616
2814.906477533281,77.7493611789233
2803.936387949623,77.71254223486667
2794.7599329464138,77.68063050785554
2784.0444801449776,77.64320588160503
2774.3665055818856,77.61031794688489
2764.923731596209,77.57772595097416
2754.217405778356,77.53828733282332
2742.518864098005,77.4969338568227
2731.4782246183604,77.45730828248833
2721.882588231936,77.42237266237113
2711.3164841178805,77.3854088312516
2700.124088637531,77.34332248248035
2689.569619218819,77.30541214006392
2677.2018001582474,77.2601413755131
2667.822545554489,77.22631249860876
2657.176129939966,77.18671022180244
2646.4090593494475,77.14686371499661
2635.7249016119167,77.10723086567116
2624.31314974837,77.0642119434178
2613.6322848768905,77.02340042889944
2602.2471564458683,76.98178526626918
2591.8311523785815,76.94172831009722
2580.722484475933,76.900203901794
2570.0270377798006,76.86029157714322
2559.3157612271607,76.81900411803883
2548.388462291099,76.77786446475561
2539.293815731071,76.7429890362902
2528.366016103886,76.70052657100378
2516.3211967265233,76.65452612155605
2505.621311883442,76.61415319795175
2495.109843672253,76.57375959168861
2484.215205960907,76.53164585207314
2473.7479799399152,76.4913522322489
2462.893202671781,76.44940759147866
2453.3689895756543,76.4129618858375
2444.2710949368775,76.37779506991885
2433.158443815075,76.33397441922845
2422.4782818444073,76.29322087279321
2411.705788659863,76.2517377031414
2401.602924324572,76.21161743746305
2390.5470269033685,76.1684990502879
2378.810774299316,76.12520869961502
2369.429568981752,76.0869213811789
2358.46887611039,76.04477086981707
2348.7563906125724,76.00677489746627
2339.319114317186,75.96956272535613
2329.7465398088098,75.93128897538247
2317.681821644306,75.88380606180883
2307.0055507346988,75.84265375125892
2296.59521046374,75.80203163692555
2287.5206914516166,75.76616886324922
2276.9049371406436,75.72633993222577
2266.231797210872,75.68281392847084
2256.332134480588,75.643702620784
2247.111557384953,75.60807000128005
2236.5726265702397,75.56655624754139
2226.5049936771393,75.52811996873218
2215.3634014315903,75.48364079745701
2204.7301360610873,75.44151225051695
2194.9915119539946,75.40427809011027
2184.3060466181487,75.36178455371054
2174.096747709438,75.32226841787212
2163.338892127387,75.28146061494147
2153.9824201269075,75.2432699936202
2143.0756832230836,75.20107270921325
2133.0736073730513,75.16111968267704
2123.8999824812636,75.12687054061404
2112.5298556452617,75.08065219718829
2104.0907786348835,75.047216647489
2093.834717499092,75.0074999454456
2084.9137367028743,74.973800158563
2074.1282056458294,74.93080683731975
2063.912273546681,74.89061840579731
2053.415766429156,74.85023761767768
2044.1283274376765,74.81391866505687
2033.7478986466303,74.77303609458701
2023.115052302368,74.73185178217322
2014.795175817795,74.6996940912066
2005.497140005231,74.66301636776943
1994.8330724164844,74.6206365820291
1984.438384173438,74.581239062947
1974.4780563376844,74.54182057349455
1963.8455166341737,74.50132532219368
1953.5204607071355,74.46063283968833
1943.4331036340445,74.42128924056424
1933.1836933270097,74.38177726602795
1921.6158948764205,74.33714667193152
1911.6972556840628,74.29828897000046
1901.786975653842,74.26029885332935
1891.5736110173166,74.22096995968839
1881.815493894741,74.18298003014635
1871.9949238076806,74.14425017123217
1860.4527912763879,74.10047550710127
1850.6280604936182,74.06200514871509
1840.2266760356724,74.0230741031847
1831.3502151845023,73.98790020529637
1819.4147960059345,73.94220175994396
1809.325610670261,73.90373798506994
1797.843787457794,73.85944944879424
1788.532036099583,73.82234536489187
1775.9701502481475,73.77552800578412
1767.8006889279932,73.74380995049512
1757.420128569007,73.70282558056515
1746.370075023733,73.66152195624078
1737.177861222066,73.62543593522726
1727.2052674815059,73.58833804379587
1716.40312339738,73.54654471333484
1706.7498743925244,73.50979585978212
1696.2297833180055,73.46984242065223
1685.5213697515428,73.42814735146894
1676.8237418448552,73.39507320424485
1666.2700395118445,73.3546058813301
1655.3671356681734,73.31376578304955
1646.1915812669322,73.27851938532794
1635.3312941184267,73.23733843654483
1626.1494335373864,73.20300319360886
1615.675703221932,73.16233195962978
1606.6204534033313,73.12868234255849
1597.1823850916699,73.09302782995826
1587.3963939333335,73.055742665122
1577.0921243783087,73.01669700187652
1567.6954385573044,72.98197981185537
1557.78444573842,72.94445603224726
1547.7753723673522,72.90602639298709
1537.438691799529,72.86742745746159
1527.0586425568908,72.82845241412912
1517.284047103487,72.79080905629341
1506.7765533812344,72.75194829779136
1497.6311459289864,72.71697669112206
1487.1805268861353,72.67784259089389
1477.9063096847385,72.64377766792701
1466.3814251367003,72.60032175069917
1457.6672492688522,72.56764153600378
1447.59076266177,72.52926085580958
1439.4368950221688,72.49880870392235
1428.811235576868,72.45919196030705
1418.6002509752288,72.421388062993
1410.4400074156001,72.3906046411499
1400.8921133615077,72.35535242666465
1390.8041452309117,72.31749453577713
1382.2584013817832,72.28631075615438
1372.3917659809813,72.24936528346346
1364.0789378155023,72.21770579248852
1354.3995408797637,72.18224886125309
1343.4074537595734,72.14117783216392
1333.5785340871662,72.10495307937755
1322.9372981721535,72.06590456560905
1313.334075239487,72.03019243522876
1302.9723075805232,71.99197856664213
1293.3770294617862,71.95737529468532
1284.910500871949,71.92548123087951
1274.6775376489386,71.88822724999888
1265.7186988377944,71.8549479970752
1256.1229878030717,71.81917593438872
1246.3976755812764,71.78411312130402
1236.668822501786,71.7477404072385
1228.4315994791687,71.71738684988634
1217.2683620490134,71.67669887620343
1209.5649760393426,71.64810007338136
1198.5339651135728,71.60771445825507
1189.4300197483972,71.57467661274549
1178.7996373381466,71.53513867677721
1168.9774799961597,71.49965652468417
1159.539249281399,71.46523038631189
1150.4851855607703,71.43202228297362
1141.172845770605,71.39855639819093
1132.2173857046291,71.36549419510091
1123.2176568936557,71.33249335818557
1114.1358320377767,71.29940845132954
1104.1797040523961,71.26369935984381
1094.9353221068159,71.22948417794531
1084.7439777133986,71.19294133660715
1075.4410567507148,71.15933755115532
1066.2955547142774,71.12834692095605
1058.0863837376237,71.09637304704697
1047.2847266132012,71.05769554882916
1037.9064042791724,71.02326702345898
1028.3925369521603,70.98915160945566
1018.2260052487254,70.9519823743506
1008.2815208053216,70.91634079934275
998.3187898788601,70.88040774118045
987.416552473791,70.84152221061537
978.2363607725129,70.80813813057783
967.8133886335418,70.77080965184801
958.5686480458826,70.73780155664406
948.112385247834,70.6999443416066
938.8706480069086,70.66685038399626
927.3721977230161,70.62581848974492
917.8878797199577,70.59195018634408
909.047645947896,70.56027815013027
898.978170229122,70.5243603254853
888.5897423774004,70.48761304486013
879.6113500520587,70.45535190027474
869.497421650216,70.4188172461757
859.7985983211547,70.38435021312438
849.9069324461743,70.34923424557103
841.3150455802679,70.31854708116319
831.396646913141,70.2834212396592
821.4992502545938,70.24828427952028
811.8285473883152,70.21402439095174
802.363455071114,70.1804883661797
793.0660257237032,70.1474639456009
783.7109773615375,70.11516000116691
774.171627712436,70.08056928233015
765.9440137799829,70.0511881904624
755.4975169207901,70.01475969067542
746.5975578920916,69.98327627337194
738.1574298189953,69.95436052269426
728.082142027095,69.91819972685177
719.8359570968896,69.88862790565486
711.5136927776039,69.85970044750836
700.5830543730408,69.82126678486472
690.813019759953,69.78710444783596
682.8504265248775,69.75869822340935
672.7033648090437,69.72336179266352
664.2365021845326,69.69366441145107
655.5083770547062,69.66319851691787
646.6789975417778,69.63173180814135
636.605682503432,69.5973810152307
626.8473086478189,69.56259164867636
617.00907657668,69.52896705010244
607.7678379593417,69.4962022277485
599.2119836201891,69.46639189044977
590.0114246727899,69.43429865743913
579.6183361094445,69.39802313709494
570.0995014132932,69.36487701085535
560.5289208497852,69.33184475340526
551.2072256719694,69.2993241979852
541.3049437832087,69.26463496613778
531.8734381319955,69.23224686228933
522.6647938117385,69.20001529657293
513.0489543424919,69.16714430365683
503.6505332328379,69.13441115451508
494.54257169086486,69.10284529706759
485.2982627777383,69.07163765681543
475.2350593674928,69.03638406551524
466.7602868853137,69.00715489390532
457.60038892552257,68.9754747683658
449.0944246146828,68.94635069975463
439.2562442952767,68.91331912684505
429.62203874625266,68.87964032256654
420.5436014737934,68.84831922100548
411.42118716891855,68.81674621943728
401.57538867834955,68.7829131073069
392.4467924917117,68.7515226396943
383.0500093065202,68.71899235683699
373.36533729266375,68.68654316390307
363.98532660584897,68.65386997120099
353.94849907048047,68.62014373862122
344.9322427427396,68.58898304591602
336.0477924756706,68.55852303242796
327.9098561052233,68.53072256805464
318.2332139797509,68.4978054018152
310.1168682249263,68.47047446454607
301.5099691413343,68.44220750185815
291.6420503370464,68.40736469546898
282.2911141682416,68.37583657152933
273.12136950250715,68.34480454929789
263.49752247333527,68.31158357536847
253.74033806007355,68.27874241402188
244.13380008004606,68.246434843396
235.15297722257674,68.21636484257553
225.99727579765022,68.18479159651211
216.35958312265575,68.15269895836606
207.3500201664865,68.1216235497803
198.26029603090137,68.09114940288961
