Altitude (m),Airspeed (m/s)
4262.895367152989,67.84465239242219
4250.22112108022,63.14872227487856
4231.539474731311,62.24108121666565
4212.693774944171,63.59398247821782
4204.579216746613,64.0919404439953
4195.576188856736,64.6094885942303
4187.965905427933,65.0502103938131
4179.860675688833,65.49714751199225
4171.053614202887,65.97803231097642
4161.9861303651705,66.42880373583013
4153.125851503573,66.88494347834701
4145.344547273591,67.26428258562919
4135.883496387862,67.70601966586318
4126.486435985193,68.12846339595845
4115.941391097382,68.59527935706646
4106.568809638731,68.99039070330551
4097.312052067369,69.3676055509061
4086.9146184483543,69.78074558661395
4076.580550728366,70.1452315320886
4068.0053139897063,70.47402737102094
4058.2106670523062,70.82595745908496
4047.829593782313,71.18264333518627
4038.3797227246687,71.48270133013523
4030.2261181911454,71.75257511682052
4018.8883356414735,72.09308975137647
4009.3645252678543,72.37455737992784
3997.97140447516,72.69529565490063
3989.0357457045466,72.94167856683237
3978.202423404902,73.22894380480314
3968.191669742577,73.47619024558183
3957.178243408911,73.7489509734525
3946.488629328087,73.99302594146174
3934.9219531025738,74.25805468213105
3924.4956966005266,74.48104214626042
3914.4418200328946,74.69023498072049
3905.0123767564073,74.88069012058723
3893.4946919949725,75.09817319350378
3883.308724307455,75.28725006224622
3872.4959032228217,75.47565716886359
3860.809040782973,75.67654664948711
3850.6450887322426,75.8376364526471
3840.0507100857794,76.00195545311831
3829.785374951549,76.15888608309196
3818.48828158807,76.32022679860705
3808.1474728314206,76.4591087444815
3796.779382204637,76.60826154908425
3785.014593359083,76.75647762503388
3774.415399108082,76.8813494553536
3763.7469447935,77.00433864346091
3753.664422247559,77.11489589670263
3742.967343861237,77.22512577439706
3731.911635243334,77.3348192331776
3718.3977996632457,77.4620439424923
3706.4691856419668,77.56971629392103
3694.3845254322514,77.67066772704621
3682.1122522372752,77.76755290811481
3669.646562919952,77.86168362182896
3656.5211128462106,77.95419735737778
3641.1671253442764,78.05512395474538
3629.3614006694406,78.1267328355094
3615.2240455206484,78.20859856872325
3600.3550887759775,78.28780027144059
3586.6582413008437,78.35477162735292
3575.436495564878,78.4039219296712
3563.806730089709,78.45448065592838
3552.64637581259,78.4987377081275
3543.6169201619923,78.53187776791978
3533.8317070435733,78.56568568582728
3522.945385481231,78.601173833739
3513.066921052523,78.63035425075458
3502.5787145672366,78.65997018213025
3491.4336431799456,78.68837223538121
3481.2396866166964,78.7124482914531
3469.2771582547575,78.73706572082735
3459.9681571843103,78.75473405664087
3450.9204913964495,78.77085910191457
3440.3602622840554,78.78696203915739
3431.3748420942575,78.79941083664932
3420.5104767177254,78.81269906545833
3410.93949080538,78.82267435259024
3401.9886009581387,78.8305374180411
3391.0783733837306,78.83853986773977
3382.2437877785414,78.8437600304617
3372.1982269305736,78.84826127233333
3361.43289327994,78.85135248184388
3350.9601603690535,78.8529226318245
3339.9969215067104,78.85298962048522
3329.942572373897,78.85168562853818
3317.9910520249978,78.84846709863932
3307.5049046892673,78.84421489943962
3296.829092686996,78.83873886245905
3285.8430858030915,78.83156440132142
3276.9068261496723,78.82455112138265
3266.2669780775905,78.81558863235264
3256.5202831132337,78.8061822873574
3245.956203575246,78.79499732692356
3236.57253782358,78.7837737622409
3225.605686470866,78.76999715387686
3215.7589507652447,78.75656047282519
3206.39846768789,78.74283311679261
3197.5188787542284,78.72944651936642
3187.323631058447,78.71286424254905
3175.547941000201,78.6934194278879
3166.8939151987433,78.67789181752444
3156.4452418331057,78.65851548120655
3147.67535836529,78.64149011966845
3136.5382506763563,78.619777855202
3127.632503661327,78.60136933659207
3117.2024590503424,78.57931491593469
3108.2029112158343,78.55965078939889
3098.1295828418806,78.53807024589929
3088.396584802307,78.51510147167808
3078.036124723032,78.4900130098743
3068.9991736290976,78.46860474944066
3057.9428877430037,78.44265357804382
3047.06059161108,78.41391532684564
3035.4100909186527,78.38351064927889
3024.608553719707,78.35557291683212
3014.788689297624,78.32880577362445
3005.5030385944992,78.30338567306372
2996.2801625691354,78.27818771212569
2986.655495078303,78.25072174087535
2975.8589193420485,78.21974594685643
2965.8215928496793,78.19002035408515
2955.3608954232186,78.1594702171698
2946.125136759132,78.13251720682378
2937.0586844477803,78.10439534264091
2926.716262711212,78.07310419485529
2916.357854749076,78.04110455139052
2905.7121112020686,78.00777896926117
2895.9879113780335,77.97758845710368
2886.3017860706896,77.94624238236808
2876.3009002143517,77.91374340072511
2865.794982773252,77.88049325580272
2856.7589621422812,77.85050098458406
2846.04036617931,77.8150804663637
2836.532094977796,77.7834639811873
2825.8701430726796,77.74778566928717
2815.5109117776155,77.71398331691479
2806.7428249912336,77.68255377378728
2796.301245134324,77.64785474057072
2785.550971629098,77.61000094191311
2773.407659124583,77.56875772725195
2764.8038838822395,77.53779724906089
2754.1312372218817,77.50097433201768
2743.271012397483,77.46360918942457
2732.085915870033,77.42286653132722
2721.614572954364,77.38614871441911
2711.9269536379725,77.35215402270217
2700.5135238468647,77.3098666040111
2689.7730922615156,77.27104227368977
2679.0896825091913,77.23132368506073
2668.3705373015255,77.19250245264064
2658.0925037935376,77.15590082259962
2646.1260077850893,77.11126668830883
2635.3341471981257,77.07207094709396
2625.0064369132742,77.03351384821562
2614.385332465172,76.99366624528086
2603.9145906632766,76.95461555741113
2595.2506186114624,76.92253226005346
2585.015766643919,76.8843132780413
2573.7315024985,76.84109353418226
2563.5313570220023,76.80347554926082
2552.428111627698,76.76203170405576
2542.1796066928655,76.72301618914003
2531.6698802411556,76.68333762047513
2521.0897255362943,76.64289054207221
2510.0076253218576,76.60093706141934
2499.417879493907,76.56027405246832
2488.5655180737376,76.518816624971
2477.876176275313,76.47823009344619
2467.541237505153,76.43907985958216
2455.9088844517246,76.39399507258922
2445.57334985584,76.35452275231677
2434.8887011315674,76.31347909008363
2424.4106937386096,76.273241313396
2415.3445656970143,76.23891316509093
2405.960522781126,76.20241226378934
2397.3318255944178,76.16854037588416
2387.3147490834817,76.12988654553206
2376.705449219793,76.08894240685382
2366.6846232209355,76.04907288987478
2355.635762489401,76.0078270575288
2344.692174365744,75.96482126954078
2334.4773145942017,75.92556816110006
2323.733111768961,75.88382196277087
2312.98029786814,75.84212095273799
2302.9730394110084,75.80275403973131
2293.092654951848,75.7642896539222
2282.9355069417506,75.72473183239165
2271.7534935474396,75.68208497089408
2262.432508872822,75.64598342392235
2251.944078025408,75.6049267350709
2241.822411295958,75.56541507839727
2232.7256280248985,75.52980557318041
2223.8358355127275,75.49494204309205
2212.969493476674,75.45236271586258
2201.709068099037,75.40889912277976
2191.884982863441,75.37065350041289
2181.597559864633,75.33153264533698
2170.2636023564264,75.28665420445337
2160.8120234850794,75.24933584060742
2149.2180363517255,75.20514938125699
2138.5174682354555,75.16380148859156
2129.0809734361246,75.12629757815638
2119.3275129050016,75.08867145694019
2109.38672407344,75.05039492773115
2098.0074403351173,75.00562424568385
2087.969189133495,74.96677164813984
2077.690909714438,74.9267230297669
2066.4221065808088,74.88323407129317
2056.6468017697334,74.84489257314733
2046.3903384692967,74.8055013608821
2035.205129857175,74.7625724186062
2024.9830848192796,74.72203216028214
2016.654454366304,74.68942770630622
2007.4877550369129,74.65402262615135
1997.8098673066124,74.6169570670892
1987.4976099524647,74.57699449698715
1976.9422918278724,74.5362134685013
1966.0370086114854,74.49399110583474
1955.5956652564928,74.4537918449153
1946.1793550401926,74.41743570711444
1937.1706848638132,74.3817110960525
1927.456396702677,74.34528235993348
1916.5875380970538,74.30267387778103
1907.4283610181883,74.26774014345891
1898.9521678583696,74.23547876299223
1887.4938886938617,74.19177852153331
1879.094515808858,74.15838933367856
1868.1996972830966,74.11685600932103
1859.165018858388,74.08189812961764
1850.0448133200407,74.04680000189745
1839.9640132086352,74.00808167382516
1829.410255371593,73.96768652642774
1819.405589346774,73.9289434584459
1808.5771375121549,73.8876479571774
1798.1682953545824,73.84756964477802
1788.1618298487738,73.80973289279113
1777.7967790327966,73.76986748412502
1768.7435073619708,73.73530937539691
1759.6192389028147,73.70089655595167
1750.4774508504197,73.66557315121543
1739.7562560886145,73.6261181850744
1731.0878195278347,73.59146086253234
1721.2161510633305,73.5540790739991
1710.0130508523434,73.51135186888338
1699.8818600736558,73.47249180313598
1690.198286765255,73.43624630997846
1680.1689838292077,73.39803117917607
1670.1573548084125,73.36003218599721
1659.718423049897,73.32060207487774
1650.922999757342,73.28688057540165
1641.1083419974893,73.24983046349755
1631.937979951501,73.21534015652118
1623.2967512803152,73.1821177075594
1612.608820721507,73.14230208070636
1603.8707686522976,73.10958436040383
1594.000560526736,73.07292811436628
1585.2438248293474,73.03897941431005
1575.4677389161661,73.00185078049678
1565.787968063727,72.96565888185911
1554.7215684894472,72.92406832216388
1545.0318671828136,72.88732514685039
1534.1281196782365,72.84624976764735
1524.585853422992,72.81050448220854
1513.9186860416085,72.77022702506413
1503.5765043953434,72.73161472124627
1494.1590664796531,72.69655470274462
1483.2775925239548,72.6562869480446
1473.5640708766878,72.61955429797061
1463.7261281087995,72.58227906331784
1453.5662436950952,72.5450414400735
1443.1187386922538,72.50542008607121
1433.1304190075025,72.46836591759954
1424.091605482623,72.43487021742395
1415.3429818805307,72.40228274858423
1407.0674073789269,72.37103634006073
1397.5005338564515,72.33582838439706
1388.7882556105033,72.30383638588195
1379.3359237555414,72.26962077212288
1369.7604039497674,72.23300423166232
1359.174381857738,72.19381882713245
1349.4402941623703,72.15796429166133
1338.8433525692672,72.11858831256241
1329.8607583418489,72.0856567193821
1320.004840833135,72.04887562283061
1309.599504020065,72.01086114406682
1300.0831194436178,71.97595973400844
1291.037272409536,71.94238481868378
1281.1581450868398,71.90578778801815
1271.5691096587107,71.87037509971742
1260.687122374773,71.83080053001366
1251.1416195183992,71.79548993184729
1241.3852595584467,71.75969460333462
1232.208936904557,71.72627486752992
1223.5505732083693,71.69430498617952
1215.08275913354,71.66334914816073
1205.5668197283521,71.62837905665519
1196.0791606931016,71.5941327638038
1185.2287272671238,71.55403198375177
1175.742187961936,71.51946593243974
1165.960003505461,71.48403229243704
1155.3020588839427,71.4452031086851
1146.8584558879957,71.4144094396108
1137.514477067627,71.38014924138541
1127.540819489397,71.34394077286053
1117.4613630035892,71.30744336341854
1108.1769146844745,71.27409169796708
1099.0312962774187,71.24049485299308
1087.0408442476764,71.19689268666482
1077.3009501015767,71.16250260376482
1067.186622264795,71.12528584265941
1057.2429686877877,71.0892964705495
1046.8285607444122,71.05193716619092
1037.089685605839,71.01650034007551
1028.0258195949718,70.98365987954077
1018.1559506701306,70.94848132340057
1008.5258114058524,70.91350380256635
998.1823595473543,70.8762125359056
989.9935945598409,70.8470053508631
979.623683876358,70.80973071941753
969.8226718977094,70.77437766166393
960.2653756160289,70.73993254182311
949.9449719414115,70.70347846180344
940.2579952590168,70.66880127154273
930.7225206950679,70.6343803548013
920.4906729049981,70.59776133753132
911.478700500913,70.56554484241374
901.3295081090182,70.52936842187773
891.6235866220668,70.49445104489743
881.6225172281265,70.45983914617891
871.8182314243168,70.42418146581545
862.4288991708308,70.39059218871907
852.3138395380229,70.3547136378061
843.597658732906,70.32378125314152
833.566149385646,70.28788709380098
823.7876539370045,70.25323753489556
815.369675447233,70.22380968303948
805.6482168361545,70.19005361893605
795.3008005572483,70.15253101276008
785.5413475790992,70.11796876712803
777.5011268425733,70.08962375405123
768.22447894793,70.05702781305824
758.5454365462065,70.02253016614459
748.9696443807334,69.98877591941572
738.0913160722703,69.95068111692616
729.8629715926945,69.92156471396747
719.5924472156912,69.8853116284693
711.2446312606335,69.85587598871253
701.2323461417109,69.82091340812164
692.8816366000101,69.79138598390297
683.4538197880611,69.759078445834
674.0937662031502,69.72623247111719
665.5896363258362,69.69618312843451
657.119480968453,69.6662896991223
648.5114217707887,69.63625730957382
640.0663990052417,69.60676907761604
631.5779400914907,69.57701898999248
622.650149654597,69.5456882016827
614.0873008267954,69.51617053754745
603.8094055987895,69.48041363522111
594.5687213847414,69.44803090722021
584.593434618786,69.41337258247545
575.2930064275861,69.38101345459042
566.2263814276084,69.34942402148752
557.0934431357309,69.31770263374979
547.5698091760278,69.28453558041427
538.4322675745934,69.25305408624641
530.4194862134755,69.22494270802501
520.871257844381,69.19202181223332
512.1837110081688,69.16214282599736
503.53155350498855,69.13221450442656
494.05564873386174,69.09932310599983
484.55681607313454,69.06646469002374
474.9310416551307,69.03343561899088
465.20227555092424,69.00006746502781
455.4339488456026,68.9665777847536
445.9901975020766,68.93392940641475
436.38237498514354,68.90075800128525
426.571223651059,68.86713041205759
417.39376149885356,68.83593207550197
407.87252465914935,68.8028765520825
398.33936387859285,68.77154614680154
389.5956726167351,68.74019701474936
380.10491335671395,68.70821526270831
370.6101856958121,68.67526956070157
361.25261753983796,68.64311985639291
351.4755570217967,68.609801233304
342.0266604376957,68.5774412415712
332.58458101935685,68.54578430866657
324.10996519960463,68.51698930210186
315.49341567326337,68.48714954072759
306.909353306517,68.45803090484799
298.6785551942885,68.43005540108643
289.52030445449054,68.39893198554131
279.870541238226,68.36609141908545
270.6170201031491,68.33456890720375
260.73890056461096,68.30130809726285
251.44246316887438,68.26972193206863
242.34848483931273,68.23873506452318
232.81417517736554,68.20663561638628
222.93072507623583,68.17312247454127
213.86865460965782,68.14246434310161
205.25413263123482,68.11345644952712
196.29841450136155,68.08446892889914
