Altitude (m),Airspeed (m/s)
4266.997347349301,0.0
4266.820658781566,1.4729590221351883
4266.516158487648,2.7285349933392387
4266.0643406948075,3.924473240826673
4265.395510420203,5.267788052227187
4264.532637284137,6.566677443429914
4263.429075444117,7.980013743449528
4262.084243488498,9.339112956266089
4260.702333640307,10.552909603693665
4259.18485900946,11.71109126370045
4257.280557895079,12.98340074622917
4255.623134665191,14.023758890456337
4253.2873419281095,15.439687891049381
4251.212365047075,16.622457040242214
4248.781419866718,17.944317242306173
4245.599549908191,19.507350261300346
4242.440248775296,20.855426773896628
4239.066646740772,22.252369740343518
4235.538567728363,23.561662094856356
4231.637147933245,24.948684149789734
4227.544247040525,26.333410537296075
4222.9059640346095,27.82392303292615
4218.702656756155,29.12927041474392
4214.48771907296,30.322470098697952
4209.763847972266,31.63198958461473
4204.431663652882,32.99102471238755
4199.362914392725,34.18546246923332
4194.080765971914,35.35874541568604
4188.983636682853,36.45486190764803
4183.357388469391,37.62135746285158
4177.490077367984,38.732890966264904
4170.987914169207,39.91315411289942
4165.019766305573,40.967695209936636
4158.16647659149,42.15383345126578
4151.7170218378305,43.195563212319946
4145.450187562965,44.049138148884595
4138.7175363777205,44.96736143620734
4130.804027450271,46.12367449922162
4124.389711926691,47.00743559725165
4116.012406261638,47.96958297735972
4108.917337996885,48.81459329314836
4101.514000591822,49.60945072065656
4092.830451590009,50.48779763044576
4084.514889249578,51.441964302269334
4076.9073800724,52.17421088292753
4067.8102386584505,52.87431916118581
4059.0484154764563,53.657488813941804
4050.389762338251,54.393917601835156
4041.7330992920324,55.120317066467464
4034.2883547190577,55.836371661678186
4025.733179175295,56.56819421021975
4017.2181005533785,57.18912428629682
4007.489733708091,57.98087398422233
3996.414858344011,58.85170175460238
3984.8684450471774,59.85288702138816
3974.3071566103026,60.634541485681595
3962.0597010245547,61.488338474955704
3949.560811089352,62.25716464279828
3936.63715451397,63.12711053156295
3923.6701156999916,63.831857622177296
3909.929158858955,64.54456780716788
3895.417817391455,65.37273567449905
3881.645496070385,66.10431302806536
3868.6778319412842,66.67472540192607
3859.9248144766316,67.23462989564766
3851.0162418680266,67.58619957521313
3840.733193868771,67.96604987266387
3831.5950040975586,68.42502694218634
3821.092938099988,68.85210205830145
3812.3851958410814,69.18603679167013
3801.523203366436,69.37424108309506
3792.882700432092,69.65517360943743
3782.8954220395535,69.9134187688869
3774.1521454649046,70.09348621969654
3763.8185424068943,70.22242385407935
3753.006351042539,70.27930728804819
3744.044595140964,70.54074679356937
3734.1047508409247,70.73231434857286
3724.2019525459036,70.93853961931427
3714.6945971194655,71.13975104295062
3704.640951357782,71.3793077134086
3694.986920759082,71.76376979810827
3684.8775548264384,71.92529826526078
3675.779473337345,72.07234867951861
3665.292750509456,72.32080145546134
3655.005667503923,72.49252728278182
3643.384434630163,72.71478154715663
3634.4775484353304,72.7818675538717
3624.59151240997,73.01301829575841
3614.1562155727297,73.30169624034511
3605.0050640832633,73.46474123964468
3593.476147268899,73.70122980816471
3583.9362697992474,73.8372402459405
3572.8636914612725,74.12465768751565
3562.7471317462623,74.37504523147622
3553.2246240368113,74.4078009335512
3540.5149190323427,74.53260015771268
3530.7925620293245,74.60817338778232
3519.66125698667,74.75902095327842
3510.5584717001766,74.80554038987718
3499.2809285447,74.83052229514004
3487.9350661225617,75.0483180852441
3478.5890244413167,75.06059529687977
3467.0293634189293,75.10323069454314
3456.5200351411477,75.08915780757741
3447.1539053292945,75.20999256757398
3437.57835319452,75.29543331541801
3426.2365083452314,75.22956721378765
3416.7210433259606,75.33565107856701
3405.0863802172244,75.44572583586448
3395.0843748291954,75.58136291994302
3385.7319912835956,75.52440017109204
3373.922523839399,75.71229510061717
3364.3135899053887,75.79417918182756
3353.2521826429293,75.83487644602994
3342.0618874626234,75.84256209394579
3330.5048916228116,75.95547502684578
3320.983032461256,76.17943349982268
3310.2431133650243,76.32853047168251
3299.0325204497203,76.48399299070212
3288.7851291205734,76.60084872513484
3279.2605755170807,76.75752408000974
3268.3326094187796,77.04746264150289
3256.904549148865,77.27680474052674
3247.366877693683,77.38430402081602
3236.5893351882696,77.58357092743537
3224.8491917494684,77.82975925540185
3213.2614229656756,77.93105760807859
3202.6133398897946,77.98622752262838
3192.1364719690755,78.03375402337639
3181.4544020676985,78.17598551874039
3170.907840845175,78.0101695895933
3159.8545841975138,77.96774288588853
3148.2702211681753,77.88883187239846
3136.7474078284577,77.79054232710544
3126.7651552474126,77.58914956074139
3115.396991538815,77.76043125425983
3105.204313057475,77.84729749393236
3094.265189106576,77.91644657540633
3083.2882115328684,77.81744604246386
3072.197246159427,77.80672818199815
3061.4312390089035,77.97952814874526
3050.696478843689,78.11300444660124
3039.98447511252,78.11190864194099
3028.2777040824294,78.01374576494969
3018.421354625374,77.92324409190424
3008.04290562775,77.93663285524715
2997.1293600434437,77.86649564159336
2986.419281518087,77.72544585319838
2975.6780417542905,77.8257960925448
2964.698641821742,77.88668270048181
2953.510471346788,77.78015376671333
2942.376263101585,77.53541711022848
2931.722836249508,77.2999568577337
2922.5445821881294,77.35246844942553
2911.316777820699,77.10228839642026
2900.0279901800677,76.90808784103872
2890.8743496527895,76.87438113369268
2879.7456072811037,76.97153607203403
2868.571189631708,76.84803399005962
2859.2755237966776,76.55402445481998
2847.610186963342,76.68482948351375
2838.170617783442,76.5608315293966
2826.350178747438,76.42456722469677
2817.327439802699,76.12210057316048
2806.575706797652,76.09208369900017
2795.568823225796,75.61465923585924
2785.0034523736686,75.38814642348439
2773.815490783192,75.080696057184
2763.8173118531704,74.9626129426307
2752.8610444199294,74.6653478755558
2743.6177500225604,74.55807502572954
2732.464674565941,74.39507444459176
2723.035618437454,74.2038912579838
2712.8265758352354,73.88109249733252
2703.2557783769444,73.65625751858019
2692.8001810992137,73.64364980996928
2684.4384232116863,73.74804108229733
2672.765013165772,73.7972027703932
2662.1860262705013,73.58431810252816
2651.848764143884,73.66133421880258
2641.3160102730617,74.03730354280039
2631.4062407333404,74.25960388762614
2620.1965212542564,74.08791165072616
2609.297170910053,74.11073669719197
2598.2503388524055,74.44033340524938
2589.1216295957565,74.5959759856388
2578.800917601213,74.62550746989525
2567.9479296626523,74.74560145702294
2557.5676921205595,74.87238869010928
2546.1919421795756,74.62239350400992
2535.3837048457935,74.5376987585954
2525.8343338845298,74.42127702929781
2515.7072044024244,74.37831403374398
2505.074238850735,74.15352184082317
2494.8398481253535,74.05818985668668
2483.3797862706706,73.80385191593417
2474.4251336948946,73.38681885239097
2465.2942570857704,72.95773820084455
2454.5346437534317,72.71358546836733
2445.3766550850123,72.58410915498146
2434.8529307432473,71.98529478984764
2425.152166909538,71.41007322700321
2415.5045662783086,71.03683592480839
2406.5855707870796,70.96315970384349
2395.223713796586,70.86088154513699
2386.106501158327,70.53881627431775
2376.6195934191346,69.87909765678745
2368.8490842487663,69.60505713557151
2357.7194388881326,69.6128275884314
2349.399456748739,69.66606913667042
2339.200694662519,69.61861610268416
2329.683052249253,69.46081373439232
2321.038092947565,69.33653552223548
2310.728340140544,69.55571710986798
2301.4472677716985,69.9166185649541
2291.0417050672695,70.03955241141479
2281.4626863058656,70.19628280577719
2271.894952598959,70.34107047819134
2262.0401447769254,70.48051515690268
2252.600311328657,70.48751539825098
2242.612291713245,70.69360326017741
2233.1616719402373,70.83125640284999
2223.1810422027484,70.51423674989134
2212.4753851713613,70.23280551897189
2203.1819562967867,69.9441601676574
2193.2343263868243,69.83818079889868
2183.975091036409,69.47743856109462
2174.569839414209,68.74562037292722
2163.5697345109656,68.49878040345024
2154.6885577011853,68.71417934895067
2145.2688497034833,68.94467874591193
2135.525256424211,68.88345595358913
2126.626263530925,68.78099578896393
2116.6637018145993,69.13757263221767
2106.8489939859137,69.6822409287835
2096.607881986536,70.05100698412475
2088.553655897267,70.18021881577623
2078.334559207782,70.39430641560463
2068.1244241036475,70.82779783895809
2058.9425795758143,71.29992784483782
2048.1039236010984,71.67225958722894
2039.164434209466,71.81334324007324
2028.7512636864558,71.81440889552651
2017.9854475362226,71.94294257107853
2008.7246849387884,72.08229734394308
1998.4234888087958,72.27924551156578
1988.1478255437687,72.28712509494292
1978.5697306199,72.35939855028066
1968.8114580046386,72.77064287733003
1958.7101869145408,73.04378474496056
1948.5865989346057,73.02236250114227
1937.3866190342233,72.89632388581497
1927.2291916161776,72.84536758643583
1917.3292267769575,72.9553495302023
1907.4872390246019,72.77382665704845
1896.5653237253428,72.12079491523697
1887.375475046225,71.7645788408367
1877.1895175930113,71.72073825404536
1867.8977874880657,71.65693014661625
1857.7417629770935,70.88997060158428
1847.3530492987484,70.34239696230587
1837.0885882759467,69.99801049600289
1827.3987338040024,69.26956082839797
1818.4950544182211,68.56655583206833
1807.8549922732636,68.29087382316227
1798.211933478713,68.20243399468039
1788.7821103008464,67.98395115636866
1779.9871107898653,67.70770719363537
1769.8884226484224,67.61392143936226
1761.0343224415556,67.6615356969464
1750.8751787068322,67.71690297912673
1740.9954462330788,67.70498360165713
1730.108701244928,67.82148661209762
1720.3152963966131,67.94699301166017
1710.962552772835,68.01587219608209
1701.650745886378,67.83802772567945
1691.8924580588937,67.35257798227634
1682.9930890956894,66.81915786370811
1673.6797330500558,66.2833842001017
1664.7525565912947,65.9579963557831
1654.6475285822526,65.95022062939498
1646.1996841840446,65.42268252373053
1636.8606354827061,64.5857968464752
1627.1775152152404,64.69453546840127
1618.1416462864727,64.99965998808565
1609.7268207613379,64.76723515071721
1601.3700667647645,64.30786263614006
1592.2044662320986,64.50224680517128
1582.636602345854,65.10725216982887
1573.4389626923949,65.70057861769715
1563.7201637839898,66.14192848063351
1555.502979109995,66.48705333030368
1546.338032282889,66.79380492815656
1536.2403624886647,67.26075184760568
1526.845332751982,67.86825958071012
1516.9155031125993,67.98877152260319
1507.4951253701001,68.07326550406972
1498.1218555103987,68.43254601315103
1487.8786305161193,68.58562856065065
1479.5058689117432,68.83342938881034
1470.1466798027977,68.77771700590209
1461.22232106328,68.58360442850639
1451.8421554630622,68.7775851953831
1441.9279856216162,68.96323803962662
1432.3720575189218,68.98768587735739
1421.788284691982,68.81175624879717
1412.7091441536322,69.11600120819973
1402.5378567371517,69.68277702000766
1393.3938432279974,69.99871007090476
1381.8037998666987,69.82883498651933
1371.987945918925,70.08573991708253
1364.0203512292355,70.35217776732372
1353.379726308398,70.52346259705477
1343.649182668887,70.37217864183079
1334.217691202648,70.30778818278405
1324.7409359915182,70.59392788377204
1315.5756281567737,70.46926456959834
1306.3495916295797,70.06158518330072
1296.117361090146,69.80286812523268
1286.963372087106,69.84352578354732
1277.0683494769037,70.09815454119432
1267.21607827954,70.25388360079343
1256.95622372441,70.44097372767115
1247.1120829610154,70.816929532684
1237.6631897632033,71.3128403739914
1226.7072658035904,71.91325783814436
1217.889649009332,72.33166039780777
1206.9078553998843,72.58994735770811
1197.6502642910928,72.6949223589812
1188.2817444158718,72.90794213536763
1177.9843067899346,73.28631283591484
1168.477214335464,73.20852524115213
1158.2685691788793,73.06765483086181
1148.451212684624,73.22500532384429
1137.3948809308931,73.45967652720304
1127.2019434338436,73.08031730507611
1118.3916745213792,72.8722432776305
1109.1453269589692,73.06067917228265
1098.8105622613803,73.13855261279328
1088.3045863807201,72.77727820918099
1078.704170695506,71.71521863602834
1066.974361391738,70.45992103922514
1059.048177342862,70.0112731817959
1049.4145987490192,69.75384946983708
1038.935669498518,69.37672567477173
1029.7375770006329,68.73320778618476
1019.8492002375424,68.3764764412611
1010.8888142565265,68.3847463367261
1001.615067044273,68.26489000934225
991.8720215298235,68.33025534978971
982.588415209204,68.59002551481552
972.8427092768252,68.76802186532514
963.3119887206703,68.90302973312915
954.5154201844707,69.01067660121242
944.6458174986765,69.38652176198981
934.6167326495051,69.71070816054781
924.9149762792513,69.63976252890157
916.3244514986873,69.52939639546936
906.6426104484126,69.55048559189193
896.1184767475352,69.85659773952487
886.7689314819872,70.22767091459806
876.6529843080789,70.50914169306056
866.1427149232477,70.54160995284356
858.5526940431446,70.41914546176669
848.1862506959587,70.33866247392388
837.9502813424915,70.15681040448071
828.2361159697175,70.19170861891668
818.7649823417887,70.02808790583285
809.481826861389,69.05375187694396
799.8181083900854,68.38475019773375
790.5137614542618,68.03918156955447
781.2562513835728,67.82650520223042
771.5995051767677,67.41205818779908
762.4570697853342,66.99888121760134
752.8950988203287,66.87940068988647
743.5471216673031,67.1381036780756
734.9361067535356,67.33472781981966
725.1173838134855,66.84118632515997
716.2991756303236,66.28455322358843
706.7785280914977,66.16730260764626
699.066678641364,66.43979080217885
689.6211975757033,66.75279811006094
680.3135070633143,66.57883617654376
671.0897737173364,66.05643890108723
661.6257530841976,65.83690853664939
652.3918772200122,66.05556750824977
643.3691599816084,65.97691970449527
632.5325896022841,65.71342626381156
624.0077497661114,65.44338844941345
614.7104876199737,65.31960858123581
605.9986791023985,65.29048211086788
595.5890817800537,64.94966815605251
586.9204990100116,64.95027091299329
577.4422807954252,64.87870342661328
568.5313137620687,64.7954299060621
559.6733022946864,64.45917637374679
551.0676589598879,64.51525443643125
542.35686792247,64.76422727460029
534.2276344271377,65.02101239960783
525.2460745172575,64.99206986909269
516.205196573399,64.75190336643327
507.17217249330133,64.50236842485049
499.4518078835681,64.38721156195878
490.9535923022777,64.4255501330777
482.760229581967,64.42668630819567
475.3889753492549,63.92730774106237
466.3184538502246,63.155920838566686
458.3585135024041,63.11964859999688
449.34770642686635,63.47677979793451
440.5191669706255,63.82563894376362
431.63812177535146,63.760292920349706
421.4023513896391,63.84385445898881
412.77847573533654,64.09538556123114
403.6820571552962,64.52742822218063
394.4567022295669,64.93247032875746
385.9337359853089,65.08850917242933
376.6506383931264,64.99333656971159
367.0977189783007,64.81784278628044
358.91583043988794,64.78440086088911
349.5852313609794,64.89284446352896
341.81884072255343,65.00973028906246
332.6661459170282,64.75858225504024
324.30520309787244,64.13901821840594
314.94795829989016,63.494616674093926
307.09775603190064,63.14292788581055
299.41777365189046,62.930732309028905
290.560708547011,62.369612436029136
281.8692526621744,61.812641758748455
273.96339107118547,61.73713955154195
265.0362184410915,61.807704675498336
256.3965065777302,61.27808938178323
247.76172053348273,61.221072662535754
239.44867917057127,61.45394253555208
230.26902756560594,62.072508599242965
221.78433940839022,62.63829126773751
212.6832893844694,62.931234696114565
205.46640636306256,62.94066867771788
196.44393340311944,62.82741943416139
