Altitude (m),Airspeed (m/s)
4262.778166579083,67.81710971748477
4253.262348566204,63.09422707165627
4234.674495533109,61.53381533195416
4221.86376060918,62.4397554706322
4213.778490302153,62.92852568564963
4205.233095994219,63.46798188882521
4196.438787809573,63.98877129480734
4186.76409504097,64.52943506465317
4177.927037579007,65.05358553996028
4169.7099922271445,65.49710432565921
4160.775407682173,65.96290111779749
4150.980551749468,66.48372002380962
4140.933489350602,66.97012747985347
4132.105176633224,67.39253752613601
4123.079114614986,67.80788955002994
4112.371352476999,68.2864227954813
4103.102421650663,68.68899961705677
4093.0861388025805,69.11101650011052
4082.710115533322,69.53196636330796
4072.8258067835122,69.91207773769685
4061.5691214669496,70.32729960861818
4051.7388798743486,70.67690488826025
4042.9540756745264,70.98978370574406
4032.0242571067065,71.3507127114177
4022.879020730965,71.65138395569468
4011.353740721941,72.00348748194814
4000.4536595977843,72.32585206162142
3989.016331670806,72.65443952561638
3979.12390122097,72.92830593431525
3968.1836723173037,73.2210679116196
3957.361057993956,73.49302823383688
3947.5263334466144,73.73865292690002
3937.217221430503,73.98126334019135
3926.8817897392437,74.21002094876955
3916.8434881651774,74.42705702344287
3905.3171652872115,74.66905853441526
3893.8804428270087,74.901428891223
3882.0669683367014,75.13086238185812
3870.1093119401485,75.3443463121951
3858.3374690208584,75.55486459657345
3846.2050029681996,75.76422664381707
3835.5158204967156,75.93375980504045
3822.6522217197344,76.12834477905247
3811.7454192601144,76.28866523361663
3800.8360078614205,76.44105150734885
3789.88819875475,76.58583524204296
3779.7576632015407,76.71627718762142
3768.1542684501037,76.85787874145248
3758.2346514351666,76.97287738036393
3748.029066682793,77.08947500566012
3737.5538367955014,77.2013438201662
3726.7406361214817,77.3140702142434
3715.1814757175744,77.42632237439442
3703.708096641116,77.53227774458321
3692.1568145751953,77.63549413424406
3679.2586288619787,77.74275756766316
3665.3720088182017,77.85130772703761
3652.1861517904326,77.94740981301443
3638.1395048927516,78.04468074376219
3624.2538526132703,78.13295265662975
3608.380913753994,78.22715660481086
3591.9973759083077,78.31388508616338
3576.26519522164,78.39337191545607
3564.3310666624457,78.44902693796477
3554.444720777683,78.4914539743783
3542.842399638146,78.53818707781258
3531.1549799162894,78.58128491704683
3520.235731867142,78.61836350687345
3510.574362700805,78.65025418226647
3502.196310811676,78.6752844270513
3490.908141132444,78.70650033183031
3478.879624386318,78.73710410966417
3468.8861086666584,78.76031823770025
3458.647384104319,78.78248998726885
3446.6955157779157,78.8043278405463
3436.1042046714574,78.82227169242593
3424.5149620939046,78.83933421931555
3414.388263738714,78.85276568347831
3403.679398792796,78.86437219310645
3391.3679484967142,78.87534137373466
3380.759758537635,78.88364229118599
3369.428127131425,78.89012971550336
3359.39238868095,78.89430818172069
3348.368613122031,78.89714550115369
3337.2635374628007,78.89832302577061
3325.4152619373053,78.89771065044627
3314.5881963130087,78.89562407455705
3304.619871661067,78.89239667478147
3292.5224232003093,78.88695372111854
3280.583681850694,78.87958012798927
3269.5680092535913,78.87147079290105
3258.449823531322,78.86210412145596
3247.039381391369,78.85102379928956
3236.2768545206636,78.83915439665536
3225.7900695204735,78.82674487062548
3215.7974430406466,78.81412520787225
3205.8848486607894,78.80033049108229
3195.725245270878,78.78544101790675
3186.0609377073124,78.770210471487
3175.0829997761175,78.75235610925404
3163.355587279424,78.7320720637269
3152.151864715852,78.71183252237374
3142.455769788474,78.69328372461378
3132.006166094914,78.67241789297496
3123.1626729434356,78.65442400516979
3112.590403086506,78.63187509186558
3102.4795902678743,78.61002928059506
3091.244437322952,78.58466625133843
3082.6922436384484,78.56469146943218
3073.0876367129385,78.54180273617197
3062.636060008779,78.51626885153865
3051.628081404604,78.48922202285169
3040.7664758572355,78.4613956741781
3029.2587406495586,78.43152669649494
3019.873059879057,78.40599185526138
3009.5577944088727,78.37828889365188
2998.6559411110356,78.34829430621991
2986.881873121485,78.31512067760396
2975.628879115917,78.28284405138676
2964.332256590016,78.24973001151702
2952.0884079011157,78.21713950527287
2942.4873422356322,78.18464584598789
2930.8735308796167,78.14902027957424
2920.0994493495673,78.11595127473413
2911.0550381802022,78.08743781205143
2899.7545411540195,78.05236947456387
2889.6585396844894,78.01980950511373
2878.4021716890857,77.98335137951631
2867.809145482257,77.9486084002234
2856.900464175269,77.91310076726879
2844.9163117380813,77.87298317050141
2834.6759389936924,77.83852446515061
2823.330975914374,77.79994589238562
2810.8126759734005,77.75781519456572
2801.159176873043,77.724371075369
2789.8224911484867,77.68494296940047
2779.3676408687606,77.64802507492973
2767.71508023981,77.60744531566003
2756.822896231897,77.56931903992538
2745.930445848964,77.5299377265798
2735.066647540778,77.49101187912017
2724.4528025612235,77.45257003490626
2713.260457895696,77.41295845821871
2704.272635777481,77.37905855011806
2693.9646958541125,77.34240114369496
2682.077080098912,77.2989381982416
2671.3674917900935,77.25859049287615
2661.8525119656697,77.22373163547685
2652.7199375489727,77.19010693424583
2641.99559439905,77.14946186384088
2630.7194605302066,77.10748208146832
2620.323955484666,77.06822937129525
2611.4326843591407,77.03506029165418
2600.472537753172,76.99420819762223
2589.704956686124,76.95371580784112
2579.882697013207,76.91651751239093
2569.631693976,76.87721073147027
2558.7356518683955,76.83591681817376
2548.4893020018935,76.79587535718122
2537.936066736467,76.75607874043733
2527.669317319058,76.71622124608184
2515.7600506981835,76.67033934561674
2504.9755936963484,76.62923064117629
2494.1341516990215,76.5867953702185
2482.381339021027,76.54206714779501
2472.5725772455335,76.50362159053623
2462.384900639765,76.46415311083545
2453.1530793318525,76.4286118813501
2443.2138461098075,76.38961117801117
2433.714397228323,76.35396364505395
2423.850774301216,76.31339013750484
2414.3186672655866,76.27646011736837
2404.5055224858224,76.23849354779406
2393.911853105761,76.1969947176291
2384.363619216718,76.15891491831394
2373.158708618954,76.11620893886528
2362.3233640212566,76.07372484688614
2352.3419234603643,76.03382827584602
2341.5147672826424,75.99141423207506
2330.1248572254553,75.9473157855117
2319.2048484534025,75.90535663424318
2309.7941904393956,75.86843100929727
2299.2014272101223,75.82630454616556
2288.601552397944,75.78433704558014
2277.581226432696,75.74109858942774
2267.271475052461,75.69988619710045
2257.0085687069222,75.66065389517478
2245.558924271725,75.61468550500206
2236.762516770512,75.5799643255217
2226.52585542202,75.540402549242
2216.3926966823637,75.50016136355455
2206.037558587268,75.4593604358407
2196.2722387574613,75.42109109893013
2185.8438110239804,75.37988016318477
2175.336746198125,75.33890729988063
2166.2843334851786,75.30326645350192
2155.971159024164,75.2628639656187
2146.068966702558,75.22345582043401
2135.5987593550235,75.18257988023838
2125.18014333304,75.1415816158212
2114.9626723807305,75.1013399370138
2105.4780238578096,75.06359283849261
2095.8939035637304,75.02645072107818
2085.8330349856988,74.98730726371936
2075.474083869718,74.94613926620283
2064.188074483536,74.90198262766656
2054.0445015067235,74.86196217918405
2042.8738992679864,74.8187519945515
2033.1551184672862,74.77981420822553
2021.6026975261047,74.73528328811176
2011.8402211638168,74.69673660320488
2000.707566889003,74.65384468349589
1992.052215934731,74.61963112884924
1981.7845146963373,74.5800203385473
1971.5730390287936,74.54000955754563
1961.6132298056036,74.501001064766
1951.8351292228326,74.46243271796222
1941.5218834411353,74.42370090427583
1930.477955014445,74.37964030944232
1919.713155302219,74.33834324977519
1910.0047660479322,74.30051256330519
1898.9590604295954,74.25734608901409
1889.4599798647687,74.22016328000815
1878.691299916245,74.17779289216548
1869.564571853727,74.14284617061861
1860.691418800503,74.10949778292657
1850.8785005202517,74.07065163639663
1842.8324617063627,74.03885195206422
1832.5173952486366,73.99922590427556
1823.367324902676,73.96380488195972
1813.1063227243721,73.92431818284156
1802.029655999504,73.88120684972509
1792.7407921543345,73.84552115142283
1781.4345508888364,73.80169658878374
1771.7405943199992,73.76471403079023
1761.8060586918145,73.72635488043696
1753.0124577349052,73.69272334547671
1743.860491112806,73.6570804673447
1734.3202488217503,73.62071505836893
1723.8163142642006,73.58089999062685
1715.0565821705386,73.5473267451149
1706.7495904695243,73.51519840784044
1696.3232287112623,73.47507546915331
1685.873532474041,73.43556557860315
1676.9987791422755,73.40135008749562
1666.0314821796492,73.35952055276972
1657.4794057570398,73.32722364466736
1648.5429710587487,73.29308005064861
1638.455134447664,73.2543692089417
1629.3751035137102,73.220024590096
1618.2640669317916,73.18115684799197
1609.6715903906152,73.14566802362717
1598.699751995504,73.10330326194116
1590.0800897236913,73.07049484759524
1580.581277829595,73.03386000971818
1571.783368862234,73.00082082797046
1563.3661428662017,72.96928831972642
1553.3694798266515,72.93194229415674
1545.3296214807779,72.90161657100657
1536.2210932103917,72.86708395883397
1526.332541961223,72.82860801652164
1517.1202663304284,72.79441158582176
1506.3740276861936,72.75421453148184
1497.9703634595498,72.72216861995413
1488.6942360922694,72.68745024889401
1480.0838688621297,72.6546716996249
1469.2048668423668,72.61424583194888
1459.0007137060165,72.57615183684376
1449.3574113696814,72.53995495988597
1439.6898075267673,72.50318363866384
1429.8161998959258,72.46612197521134
1418.7919464474544,72.42535828956801
1408.6303733680397,72.38728905869927
1398.8417619932443,72.3510898281651
1388.8329974971712,72.313104031887
1379.8138873232529,72.27981552383983
1370.9638957716525,72.24697118461907
1360.857087917626,72.20902823039623
1351.5110646756366,72.17408999839394
1340.6740663722157,72.13418161740417
1330.3930855989456,72.09712810035946
1320.7667718604207,72.06053334240809
1310.8020370760933,72.02332552638718
1300.808428038843,71.98638419226705
1291.4581100326031,71.95161468648506
1281.6477398071438,71.91547651264057
1271.8197970092297,71.87931673457994
1262.315212965943,71.8438348269361
1252.3450121749192,71.8075043110413
1242.5107606630772,71.77131650949119
1234.6124670011923,71.74210922660839
1225.3705785032362,71.70854275095232
1216.6519276062027,71.67586340783045
1207.1391266779974,71.64119918535103
1197.5934630073607,71.60592425901764
1188.1056030020118,71.57175567392557
1179.4288374911994,71.53977152812783
1169.4882912384346,71.50331957497814
1160.7197494562715,71.47125663817732
1151.2260905122384,71.43625902005569
1143.052070199512,71.40620338944166
1134.6180826472118,71.37592089237656
1125.278560347855,71.3419345482883
1116.7002619411796,71.3114150997143
1107.8264876250178,71.27865864367294
1097.8543641436845,71.24262661620455
1087.525218394585,71.20466091730478
1077.8354651806876,71.16910051993261
1067.833443778567,71.13295577217006
1057.3583883708343,71.0952435695346
1047.3719256501645,71.05870020678523
1037.888159266673,71.02441932517557
1027.9525294182822,70.98812858749005
1017.7756694983691,70.95193026157833
1008.4241485428065,70.91822768585838
998.1183728249744,70.88092103070085
988.2747273221612,70.84536810334455
979.135393503122,70.81238599526779
968.6631002724171,70.77484774855965
958.6747232908383,70.73907687547198
950.7368177734315,70.71025188247705
941.6376546937972,70.67783634084073
932.7663774266839,70.6459061239027
923.761140380986,70.6133942933458
915.7112461440265,70.58476683990823
905.8932245122269,70.55091907262626
898.1688689310104,70.5218254225024
889.2744901590049,70.49029028473119
880.2442903351039,70.45809244546156
871.4551145546138,70.42716007711529
862.3768472736701,70.39439655845344
852.9318919908255,70.36073170020309
844.1950760837644,70.32953440635181
834.3775722673163,70.29498503882944
825.9633901743218,70.26446291778718
817.3568959059194,70.23415115974151
808.2169457534328,70.2016379196915
798.0634100688621,70.16565968233976
788.7504750238732,70.13271978789612
778.4639993589371,70.09711440654054
769.0703174751252,70.06288453689736
758.9527638377622,70.02708398711442
749.766823662445,69.99483341726429
741.0678109200671,69.96413070152911
731.3599501708522,69.9296215835779
722.5960510103032,69.89894050400687
712.606430565007,69.86365744780883
702.5627344725654,69.82819918918331
694.3820129614323,69.80012230387968
684.5991610391065,69.76547846320459
674.7731110686436,69.73107678083832
665.1324812099338,69.69729438684983
655.2897080462426,69.66241436861378
645.3141185902059,69.62760569636966
636.2337714321911,69.59566527993906
627.2164583709091,69.56517893885449
618.044609380886,69.53186246453954
608.0689962906763,69.49747937911975
598.1539284493774,69.46277010817512
588.3759163385257,69.42877837175462
579.2418319396675,69.39677501638117
569.127740602009,69.36171326267727
558.8331254012883,69.32736168745106
550.2157289236784,69.29592366124086
541.5492019699886,69.2657109134279
532.7203853623942,69.23513513253371
523.2133431611583,69.20220504690259
514.5786239206791,69.1722397254854
505.9175161505118,69.1426666656924
496.009594832547,69.10940730620968
487.9166583446786,69.0803139492326
479.042215179652,69.04957262801331
470.99386482685804,69.02196233061596
461.84756700787693,68.99036364291717
454.01968987938017,68.96317183700344
445.5259915208444,68.93376703920414
436.3575456086546,68.9023062603905
428.23914593923837,68.87454348049961
418.84213913604617,68.84297126119125
409.4528730995953,68.81003876360724
399.9463273677975,68.77734910686029
390.33999650366604,68.74447171945353
381.74540987517685,68.71478556496777
372.49711874034256,68.68342552377977
361.05241766572,68.64406423224608
351.4746312024072,68.61188835539653
342.56397750694305,68.5807652902575
332.61750001925975,68.54704721226446
323.08628584071994,68.5145726509071
313.598053063266,68.48205210361533
303.68274761829525,68.44820362757228
294.520686483942,68.41709767029796
285.2730239601806,68.38563048886127
275.51097796764225,68.35250779156188
266.93789742700756,68.32339380079345
258.8201878927648,68.29598967829789
249.93903332855552,68.26565065330307
242.0122011313215,68.23875740154467
233.09263699874282,68.20865733288748
223.20288785360754,68.17537234425754
213.369867621921,68.14266237145972
205.7437584064901,68.11608087013613
195.76377020496875,68.08242681516852
