Altitude (m),Airspeed (m/s)
4260.147379331291,65.60868361000466
4249.191573779099,63.2614000884409
4241.89160925895,62.14560138634817
4233.328524560668,62.244216941217125
4225.120119842701,62.81510664821554
4215.695489375852,63.42185565862296
4207.561664466746,63.91059686257431
4198.512333506718,64.44120861919241
4188.026945081539,65.04323319962427
4180.969507489353,65.4423205182725
4171.022263781168,65.9819528302493
4162.579205041751,66.41764642152843
4152.383281573653,66.92799827246071
4143.414344790392,67.36069956576917
4133.126902811229,67.84368255192041
4124.285226307809,68.24316451053751
4114.936690254137,68.64990056664108
4105.772087272257,69.03210785789656
4095.152086270973,69.46280944355725
4084.888441164978,69.86286033775824
4074.004648144357,70.26411669902751
4064.741359143518,70.60292949354664
4053.5974300019443,70.9904766588539
4045.4035551287234,71.26235840380167
4034.231271363795,71.62431813921052
4023.1465956876054,71.9667061974278
4012.706850505434,72.28622879299154
4003.1962038343772,72.56045322088657
3991.9144949568436,72.86986815887309
3980.342729735188,73.17629749773454
3971.333899497986,73.40574182319672
3959.984004318714,73.68612565559212
3949.866629326716,73.92446353858563
3938.728847959079,74.18022258573518
3927.1854286612943,74.43077213837049
3915.2970598516986,74.67717298659475
3904.6551889227703,74.89109857205158
3892.8294490408152,75.11521274686326
3882.9792843777686,75.2976639907241
3871.682798506692,75.49821151447829
3860.733941854909,75.67845924211025
3850.2357245320454,75.84967998521006
3840.2150049004704,76.00965182854503
3828.499515088275,76.1830744895309
3818.2732108253986,76.32809992568717
3807.402325035073,76.47407050506133
3794.9360669907182,76.63935836279167
3784.786954614334,76.76598109557442
3772.877873583697,76.90696282294952
3762.5124552724883,77.02544601328984
3752.629494380206,77.13294141139515
3740.3162579117343,77.25837864835653
3727.738186713308,77.38111835885658
3715.091291822493,77.49801188440249
3702.0362264243886,77.61424015208871
3688.959685877897,77.7207488064907
3676.2677446193993,77.82074729251534
3662.576787248254,77.92035252487968
3647.9553133547306,78.01969057611656
3631.9512136355042,78.11939747907849
3617.128918006085,78.20608918210446
3600.8816077578813,78.2911688732476
3585.8794203000143,78.36491087461347
3574.6960131563246,78.41624082730095
3565.8143837656826,78.45416663538533
3553.5031296564266,78.50286636918125
3542.7866569356993,78.54290161844848
3532.7031790576875,78.5779536714744
3520.714182124473,78.61644185516356
3509.556213816628,78.64905632702248
3500.8547214111313,78.67301902609069
3489.203430279158,78.70197633209845
3479.0751919364557,78.72528283203779
3468.571938362904,78.74687539445445
3459.8763430798426,78.76337458221552
3449.775327248499,78.78103443387069
3439.4826039411128,78.79660466007036
3429.453521729447,78.81029843212087
3418.7574390862137,78.82305070217156
3408.635634190403,78.83314407657114
3397.919803727418,78.84218031833333
3386.221876149066,78.85004158345201
3374.547420389019,78.85568335778989
3363.9932486973703,78.85924211434471
3353.6503835273907,78.86124320204803
3341.5428825672716,78.8616510426495
3331.0251569859684,78.8604763033133
3321.396569142118,78.85818937703169
3310.1189062818885,78.85401447838474
3299.5500045083463,78.8487344246656
3287.609051405452,78.8414511606913
3277.330805604346,78.83360567018393
3265.7395447166637,78.8237523661363
3255.3876614104956,78.81345948986026
3246.523536283523,78.80400199543715
3235.859782106243,78.79139623605028
3226.089363148436,78.77903268046617
3217.307048008777,78.76737514349345
3206.3241581823677,78.7514115026743
3197.532462419942,78.73810175529793
3187.2407099651173,78.72181894534184
3176.585482914932,78.70358278167424
3166.5407090568915,78.68603077081781
3156.3777002841234,78.66713566176043
3145.401522271335,78.64667433937038
3134.4471616055816,78.62381209267323
3123.605560483411,78.60183632283454
3111.651932968758,78.57576657848192
3101.53913826216,78.55359209853745
3089.4460910568014,78.52575708321008
3078.484451281838,78.50003461444642
3070.01681169495,78.47965163600816
3057.723455772735,78.44933139068597
3047.9164413437247,78.42390925760678
3037.724290577695,78.39770570075052
3026.9194065025076,78.37043102678834
3016.4317259993404,78.3413311516916
3006.440073308535,78.31379718001524
2995.8681743862107,78.28578305422114
2984.0947569543496,78.25204494032985
2973.778541604057,78.2215266495056
2962.65943902079,78.18893298758229
2952.100194190629,78.15799222977755
2942.0379612287506,78.12756005651677
2931.7603604113683,78.0966452928612
2919.5916133597493,78.0588522886719
2909.6972238933668,78.02798158543412
2898.7157711833715,77.99435033602832
2886.7637015413493,77.95564818976685
2876.743546962738,77.92275805645434
2866.2871347200125,77.88979938014087
2855.808665865101,77.85521236183571
2844.477584540844,77.81742317209874
2834.2048391075805,77.78313165542694
2821.3955983724445,77.74040761199242
2811.5680961031467,77.70661567046136
2799.9171240590513,77.66712270537131
2789.6496778493747,77.63183824095296
2778.709989610128,77.59329146294004
2766.885421032086,77.5528979496141
2756.5973696904257,77.51677384601994
2744.2504781112075,77.47316812662866
2734.043987713754,77.43657141250792
2723.6859533013776,77.39974981871711
2711.899214655161,77.3577678759012
2701.7117752907798,77.32101980944638
2691.2264334717765,77.28331799718819
2679.7253311453387,77.24094570218398
2666.980818337761,77.19459807213153
2656.977514608763,77.15760431642487
2646.9079741844907,77.12108954296855
2635.1748454095796,77.07743940931078
2624.5115979276597,77.03796254285412
2614.1750752869993,76.9993917945962
2603.851270447485,76.96072145038778
2592.2425987971947,76.91761681880338
2582.4000469194725,76.88017751578386
2570.402561479248,76.8362431694434
2560.5448630396277,76.79843021138205
2550.4421711619943,76.76009530916456
2540.439611499198,76.72218016158044
2530.0520970886573,76.6835179798729
2520.8486806768924,76.6488922134092
2508.5533869965,76.6021473075234
2498.849278498441,76.5633009802764
2488.431217460893,76.52471496667856
2478.177238041535,76.48545819321788
2467.5369624923915,76.44468038648643
2457.087699091062,76.40448935193434
2447.530841331929,76.36699951077816
2439.0760819045827,76.33455446932305
2428.8526456728578,76.29546350157487
2420.1100211441517,76.2634141480781
2409.9439457552508,76.22240298531555
2398.082252287306,76.17691676007485
2387.083118638955,76.13471924846434
2377.638421336189,76.0980856146672
2366.0862493952736,76.05385445328706
2356.933108303696,76.01903518342495
2344.0523236244917,75.96797657700182
2334.7825899869204,75.93227430218597
2323.9829077553004,75.89007849125056
2314.4676228938624,75.85404737500782
2304.5415984941646,75.8144371303189
2293.5726313944906,75.77142864041828
2282.683223348111,75.72891907585614
2273.6759886331856,75.69441074432363
2261.6307551991194,75.65296932406795
2248.88169853203,75.60583183055562
2237.2638404089957,75.55289341878328
2227.0157751385123,75.51433781808143
2216.448269125074,75.47266860172915
2206.94354186859,75.43438507423878
2193.224617834203,75.38054757839033
2183.512233399786,75.34193416775815
2173.5645857192576,75.30428860571129
2162.6228924887255,75.26155321438388
2151.8907806128263,75.22005703643318
2140.9948232760653,75.1784182960812
2132.811687514186,75.1453650853046
2121.813259583898,75.10334258248008
2109.2860355135053,75.06167937202054
2099.0115023413673,75.01356709894489
2088.455082288012,74.97348368534561
2078.8148691942915,74.93544996580636
2067.220081286505,74.89001702834017
2058.188252502121,74.85606339032088
2047.6042234990746,74.81400861341757
2037.3021789882332,74.77448480053671
2028.0389051493257,74.73808641760439
2017.5792734352872,74.69716210276746
2008.3575108842924,74.66109652618829
1999.787169193849,74.62732395755216
1989.7824705746025,74.58882744455143
1979.0598690761253,74.54825684887398
1969.1201580129564,74.50859263661499
1959.165007197298,74.47008741597219
1947.9086234318092,74.42835542717825
1938.4364165682346,74.39156180917563
1926.3038457930088,74.3522947860989
1909.8168443487957,74.28137917929128
1898.6958901248872,74.2375857280343
1889.3113848008215,74.20188509095563
1879.232279916294,74.163311066631
1869.0372724719346,74.12374639426488
1855.469983828254,74.07262307118422
1845.6093768887222,74.03347649199254
1835.7514551058412,73.9950421597117
1824.7526051085442,73.95266948877676
1815.4261751594022,73.916407996495
1804.8122701412067,73.8759499680371
1793.8862776095048,73.83411407287181
1784.9157517356798,73.800340950303
1774.677479014732,73.76214198967813
1761.9640591396019,73.71189604792592
1752.7153514223173,73.67591069848598
1741.4985271636397,73.63406493092671
1727.048453129828,73.58272782468083
1715.7044356893748,73.5362787847553
1706.1873993966728,73.50004666791283
1696.5488275075331,73.46379613166513
1681.1898127133027,73.40757458329263
1669.6775255426764,73.36422200276033
1660.141495528631,73.32456430827304
1651.269765603356,73.29007414785771
1636.6579992752522,73.24379974053592
1625.2929640067741,73.19256214127118
1614.5146980630234,73.15176306805473
1602.7465749280527,73.11551742004696
1590.859520108439,73.06130879078972
1581.0460864417255,73.02483590154436
1571.2312003942207,72.98751678250929
1560.4878385057673,72.94709306680173
1550.5076103489846,72.91092438507087
1539.9535404685885,72.87266706459432
1529.949446017854,72.83275718498838
1519.490451254882,72.79507639463606
1508.681508846581,72.76145019858676
1494.1773030124605,72.70707698961549
1484.0537531683221,72.66157029827801
1472.9061345355585,72.61976857021718
1459.949390919879,72.57168394072356
1445.8971559954807,72.52149405406674
1437.3560412051156,72.48669153997582
1425.930026449263,72.44303234055121
1417.9734917972237,72.41413140769431
1408.5839308118448,72.37891757873754
1397.5608120420948,72.33775544940985
1388.8666642662138,72.30556316562702
1380.3312269896269,72.2737010109795
1368.632594476454,72.23680812314676
1356.1577095743269,72.18568418932546
1346.1166265774518,72.14797621519139
1336.8817756585777,72.11323821922089
1327.658338722773,72.08743061717001
1316.503558515571,72.03780294749252
1306.5829018084332,72.00123820091206
1297.1723083257675,71.96644291254539
1285.6166155096143,71.92759522960812
1275.8811991298571,71.88991361634791
1265.6558967260644,71.85005272114456
1255.199640519917,71.81390479589199
1242.6108004059643,71.77417248164609
1232.1039055194706,71.72656772632317
1220.906410089694,71.68861342411404
1210.9291911395267,71.64989409409455
1201.8701801383868,71.61616931186255
1191.1470012152568,71.57745835638357
1180.6308423103765,71.54534224854478
1172.3447217112407,71.50929549483043
1162.9181663952768,71.47431022461444
1152.5970391212031,71.436955236936
1142.2914774836972,71.40020085291205
1132.4726175600663,71.36446857730112
1122.500437808223,71.32834813073336
1112.9806523956358,71.29306143215916
1102.729682196863,71.25625347819783
1093.3807768533006,71.2215343577048
1082.8426098348573,71.18339962988142
1071.8256123112515,71.1433760525103
1061.2727170996368,71.10524846290419
1051.8419886669144,71.0715196390825
1041.7412206772715,71.0348559885152
1031.0499360216781,71.00482333826523
1019.7068000100553,70.95612064085236
1009.4079843265936,70.91815016806167
1000.0158600294963,70.88410186279341
989.0082513941452,70.85339256517246
977.9318655347452,70.80611543772477
965.702243800275,70.76157327732732
955.86143811699,70.72606907353183
946.5033897291869,70.69270771334793
934.9656808665022,70.65108831592828
926.3608545772731,70.61966850574525
914.24022219982,70.57704050606908
902.154142215848,70.53817653851696
892.4419502262026,70.49889362316245
883.064415502362,70.46738944156593
873.4156960239634,70.43137880575324
863.2215490452945,70.39530376669745
851.9830296048895,70.35787310797022
842.4293477591127,70.32210805099648
832.7686089687049,70.2861065476379
823.9240496559069,70.2547498801478
812.181330201216,70.2142445873098
802.3835789319128,70.17872384614519
794.3039556713775,70.15073047656291
783.800126850605,70.11298829552385
769.9444150505587,70.06740717175032
755.0173317287117,70.01100190047826
736.9895906038582,69.95337364857798
722.5813917052001,69.90407339475763
711.1891584703699,69.860615189695
697.6056094672531,69.81150177272626
683.5148930298164,69.76565702491045
673.8883048072457,69.72981069329688
661.7903720960021,69.68534157153704
651.9663455076516,69.65464553544491
642.06244430691,69.61598854948308
629.6627829568461,69.57097945080262
619.158470056951,69.53552843421198
608.7416025232524,69.50059777137193
597.9915906405076,69.46227198788449
588.5940265189856,69.42818990959377
577.4289938425645,69.38935662925478
566.5620477795601,69.35155894665341
552.5620226245373,69.30306261978177
542.2808365039527,69.26721477240471
531.2871290352196,69.22987056312601
520.8368852622807,69.19338745005747
511.33568149618804,69.16019675589683
501.4611966945231,69.12652340075083
492.31365593522787,69.09387316431746
482.0876152282581,69.05856622285971
472.87611372116953,69.02761781412171
464.3004272095859,68.99708956737945
454.3808735217899,68.96304391873102
445.585206290707,68.93279026748354
433.70056357979774,68.90035347221553
424.60520348418504,68.86237030854761
414.3641782812774,68.82555822303628
403.58017481677234,68.78996664894905
390.64061141200364,68.74586156304127
380.30956705566496,68.70905674390916
370.8766488544643,68.67672076790126
360.58971767500043,68.64139167695079
350.5825248947367,68.60720537296584
341.0245553245768,68.57451082936308
331.40682637598366,68.54189462146472
322.1203233366832,68.51015954849439
312.111234231852,68.476317972059
302.58499935269356,68.44408015044165
293.2654115939513,68.41223663330283
284.2462239395827,68.38124470789067
274.74698487110436,68.34930226220277
266.0786098726094,68.31944803326401
257.5851883860305,68.29058323691396
248.36826591193676,68.25934763951703
238.72589027881622,68.22677972085447
229.45654921419919,68.19537369370933
219.8668251466006,68.16328064809534
210.49540617503226,68.13132641600171
199.47986307181418,68.09816582224947
