Altitude (m),Airspeed (m/s)
4261.983259086497,66.74006793179628
4254.758072692901,63.26703149533169
4246.870853423141,62.96113952140507
4240.258790299296,62.21930877269156
4233.238184815273,62.52652180809749
4225.499934494495,63.03325631726836
4217.505885841325,63.54694721822097
4209.341122131795,64.0437465529609
4200.130948007107,64.58651777387774
4190.231796748005,65.14232330422385
4181.478103975765,65.6415853640938
4172.590516717173,66.10800235779436
4163.879019702785,66.56584551186394
4154.582335806452,67.02690751716456
4145.300648540258,67.47256805413568
4136.182387620211,67.89809207892263
4126.8564770985395,68.311963689394
4116.378777283244,68.7635749968995
4106.663827585056,69.1686237681649
4097.244892094284,69.55278957834912
4086.5113651668653,69.96498032980641
4077.0730236545205,70.31196283804664
4067.418218483217,70.6612978711083
4057.8978142226115,70.99367961461431
4047.8883102340624,71.32696066755096
4038.0740739786997,71.64833029641825
4026.583566949703,72.000907779775
4016.5042287008837,72.30161640120151
4006.2023157039657,72.59632510084197
3994.1128246746957,72.92961443636405
3984.011288214475,73.19169384936541
3973.790473056957,73.45034804440266
3962.441206247546,73.73571742251906
3953.080247256905,73.96011583914364
3942.954234250821,74.18192281365606
3930.7813705513254,74.45105721235363
3921.0950884316117,74.65400806753043
3910.6415942683816,74.8639065273947
3898.6706160120666,75.09059558790507
3888.693555944599,75.27799162915886
3878.9472138304263,75.45083944623391
3865.519218504429,75.67675612412229
3855.2941923392937,75.84510572937164
3845.221999197267,76.00366232168435
3834.2205046750605,76.161938827081
3821.819780819118,76.3456206096263
3809.6299386862665,76.50862950742076
3797.1154955169186,76.66634815578168
3788.051705615595,76.78220051090085
3773.5426579900086,76.95465557326023
3762.7246614377946,77.07432778369036
3751.518512448296,77.19462147445422
3739.6992863537744,77.31630986439671
3726.619759832509,77.43867152540696
3715.5202758284286,77.54100434002167
3702.4745183037594,77.6524599013047
3687.5620614346117,77.7735038774299
3673.1781753692776,77.88236153463086
3658.264905379154,77.98566831482434
3644.6509334119037,78.07471171107642
3630.270848779939,78.16157307612102
3613.415238997899,78.2561564426118
3598.653462577611,78.33172207503338
3585.895262531005,78.39205502079541
3575.809086062014,78.4370308360714
3564.694395918399,78.48205058407778
3552.610306704417,78.52991387086787
3541.6793470708653,78.56897417698022
3530.958421238698,78.60433124492411
3521.2133194692433,78.63476838694788
3510.4153802394867,78.6661059536025
3499.1850188933313,78.69399002416121
3488.3336200872436,78.72097632523293
3476.7900095777586,78.74581213444331
3466.645807658322,78.7663404582572
3457.4851822555065,78.78221455802192
3446.938817781396,78.79940923158057
3435.9645156348124,78.81401692902796
3425.4516318114474,78.82746549689497
3416.356820480898,78.8366653272207
3404.368994746357,78.84770748359253
3394.4485657271,78.85489749578423
3382.375452777371,78.86148303138226
3371.7673326916993,78.86573842217314
3362.6893940549344,78.8680033775587
3350.338893682696,78.86924630526376
3339.693784074858,78.86869220927633
3329.2150755552575,78.86671524523383
3317.9714226191863,78.86312061241071
3307.498575671576,78.85854287255194
3296.413517329842,78.85196498701849
3285.231183609925,78.84417857792009
3274.539619045332,78.83544180559535
3263.7085077585652,78.8255224660301
3252.9221015097573,78.81434131812063
3242.444488858804,78.80235347718718
3231.531535846181,78.78883874214829
3221.0870014410466,78.7743123188468
3210.4087389130145,78.75925787839086
3200.8942086184397,78.74553797688041
3190.4265754707158,78.7279099345189
3180.0102338651195,78.71013062011248
3171.2481306176633,78.69513370126006
3160.3750733183697,78.67469808835827
3149.9620469370857,78.65493145670175
3139.8309236783534,78.63456443596867
3129.433337607421,78.61278316496401
3117.6923418454826,78.58791074535733
3107.158900944516,78.56508618726902
3096.8524482287467,78.54120824677481
3087.750013647601,78.52085562276004
3075.6922147246078,78.49164728407789
3065.4470525169745,78.46640330529519
3054.6595263844356,78.43904374225573
3043.5480491919443,78.41057035784758
3033.0674546686932,78.38331905571489
3021.338326365687,78.35170820399586
3011.282735224813,78.32418759848004
3000.291174397804,78.29462223555323
2989.442864471115,78.26311102032517
2978.8569088783115,78.23276039203664
2967.851481058635,78.20091971068254
2957.389227377251,78.16957727670636
2946.6766869658604,78.13839522702914
2936.215337328613,78.10639869824028
2924.6431219764054,78.07073061969321
2913.575138134882,78.03570879371652
2903.0241338880733,78.00355019659416
2892.2912068627775,77.96879372449945
2882.0158533547074,77.93562413814627
2871.195339731872,77.90170573592836
2860.7627141531557,77.86608634291737
2850.347609607503,77.83239139022956
2840.054489790462,77.79814643257208
2829.320188237354,77.76252287726672
2818.5381060419604,77.72557492057912
2808.0151057559997,77.69015173597823
2795.9100887011737,77.64827940536262
2786.9854771383107,77.61825016384213
2776.5192721663043,77.58156280515146
2766.3425928065553,77.54556365188864
2756.154117083177,77.50982442199748
2745.829652217217,77.47411559444234
2735.524741320871,77.43688644106568
2723.9310365784913,77.39676169827038
2713.5035708099604,77.3585414713415
2702.9258405538276,77.3201910185283
2693.785247429274,77.28891540521533
2683.6534338658676,77.25066392239019
2674.1112633096054,77.21612235590425
2662.5344938840717,77.17329311851834
2654.167785680853,77.14251677033931
2643.8650171607733,77.10413362241037
2632.2911526793614,77.06172546576475
2622.231476923451,77.02454710950629
2611.6517210500315,76.98536791161528
2599.779501441866,76.94125190026016
2589.001343560405,76.90121869969497
2578.4582607541233,76.8619564290833
2567.7232169862837,76.82073656234036
2557.792772969231,76.78290669738448
2546.1328358156607,76.74083091647157
2536.16877130419,76.70135901872906
2525.7187833711505,76.66170282885712
2514.0329267540947,76.61778222434974
2505.6951336190104,76.58641301301769
2493.8467056928203,76.54036330616289
2484.1398132266477,76.50282887067253
2473.4012166643515,76.4623493326703
2462.5256704725325,76.4209087742362
2452.1182719534263,76.38038680790882
2442.0775765655562,76.34182395593851
2429.8156610978767,76.29497065224368
2419.7013126323,76.25548987736664
2408.5692354720086,76.21310079059612
2398.670692953281,76.17427481769242
2388.0954997316003,76.13347950744561
2377.743819856085,76.09382756630527
2367.0231969961897,76.05265929351141
2356.4353360310197,76.01157876846638
2345.354915181175,75.96784591688525
2335.4074345836416,75.92957673613145
2325.3252138290554,75.89054931644458
2315.716951048933,75.85315394523461
2305.224945404567,75.81235916486996
2294.9431353332475,75.7729954828182
2286.6490814499557,75.73997363451763
2275.931532402523,75.69880366095177
2267.157486528158,75.66526999707604
2257.141530451365,75.62552375758592
2247.398462708108,75.58755368328492
2236.78476491943,75.54667075704184
2228.427004741505,75.51361579640253
2218.034652976319,75.47385578059743
2208.0802659736946,75.43444283321755
2197.9461593069136,75.395258959839
2186.4694234207273,75.3506643513672
2178.3565468033776,75.31900700258934
2166.64929975383,75.27322190953197
2156.8132744636387,75.2351137071701
2146.971413497813,75.19720772603317
2136.8552223797888,75.15738634196238
2126.5879883859307,75.11787929323465
2115.1890961928293,75.07363487083914
2105.10334296152,75.0339714401668
2096.3293985864148,74.99975091312065
2087.636177592911,74.96790987365624
2077.607929554768,74.92706426724276
2068.086428324692,74.88999154295122
2058.5413705762476,74.85311677805102
2048.040478386916,74.81307114771556
2038.339741513133,74.7745965490353
2028.4753548633307,74.73634528027279
2018.6208752626553,74.69823849465169
2009.047377642244,74.66071225517959
1999.2775524398312,74.62342312998997
1987.6013447409496,74.57873586672335
1977.8404791476205,74.54051344489231
1966.8231501933187,74.49833855823326
1957.4411274138838,74.4617370787251
1947.5900277718902,74.4232390758797
1937.8474871739745,74.38592626170882
1928.3149306159467,74.34917036155129
1917.0630030697212,74.30619189177742
1907.774930909276,74.26965737556608
1896.2169701978564,74.22580161392652
1886.3237342806533,74.18695459021536
1875.6891621332616,74.14596997661802
1865.9602910708636,74.10841384041339
1856.4369406607002,74.07210602017778
1845.8037336776033,74.03111700692129
1835.406366813928,73.99156518200263
1825.1101084575057,73.95163327470473
1816.3758921921253,73.91761583638234
1806.1878607375547,73.87927560197326
1796.8303572228178,73.84312929003526
1786.4806782472879,73.80422723036888
1777.1791142392904,73.76798447396133
1765.6201454792172,73.72432490832172
1756.4903423208743,73.68975185923665
1745.830908499658,73.64832564279432
1735.8243537582457,73.61049359992433
1725.562033707276,73.57231622729721
1715.2795076100156,73.53185769415526
1706.2874308302999,73.49750728348405
1695.2432392723858,73.45529137293462
1686.4902237057686,73.4224497637071
1675.446062357165,73.38260610520189
1665.3933170987293,73.34281088487272
1655.4398626657203,73.3045482041709
1645.4199383761734,73.26655116613259
1634.3482462288812,73.22499953767426
1624.9627714436501,73.18910395265944
1615.0435869600624,73.15142438429454
1606.3066031290218,73.11915146851145
1597.8212206065655,73.0864996843308
1588.2327920822427,73.05083542173394
1579.5287260077894,73.01805029084225
1568.2136196214706,72.9751843214638
1559.7795490669087,72.94327608305854
1550.0133640887216,72.9066421497733
1541.2894029477611,72.8742755026044
1531.9875198472291,72.84009189582736
1521.7455501761287,72.80080907803769
1510.951498284936,72.75997490258416
1502.2609392628074,72.72783807086682
1493.273653978482,72.69336445574271
1483.2952256081626,72.65721857561338
1473.4804483689368,72.61973633512974
1463.4268678352237,72.58228666382095
1454.0861996961758,72.54801100381346
1444.491745439358,72.51089567289732
1434.9524426283315,72.47565044803306
1425.175107428804,72.44005971372951
1415.4504651939496,72.40313800456457
1406.5773174287751,72.37028002090491
1398.422242502682,72.33528096948197
1388.8802073728293,72.30448690106051
1379.9054792495444,72.27138529414715
1370.6646569930017,72.2369860707927
1361.4219918092713,72.20258345115712
1352.1741206329316,72.168336490252
1341.2434996291995,72.1285191365665
1331.769159753807,72.09315323266719
1320.8599479608238,72.0537337935426
1311.097197654657,72.0177245104847
1300.7652479354292,71.97959371844313
1291.1013689544052,71.94424935311137
1281.712670924142,71.90920302035686
1272.0529168648645,71.87318629161543
1262.0772079769522,71.83654862664156
1252.3646883442998,71.80047976998895
1241.1980777280405,71.76008404553629
1230.537445445545,71.72119685280114
1219.4514540005475,71.6810058364948
1210.1355834882706,71.64636092020486
1199.732951679267,71.60920804316545
1190.277050879784,71.57435837803354
1179.6682780282572,71.53549824021648
1169.427553249523,71.49831435011305
1160.3824057215825,71.46555685122817
1151.3107454227284,71.43137216901084
1139.839075258933,71.39159263044306
1131.286197195761,71.36188241140958
1120.3777905479074,71.31920259359678
1110.9332838365808,71.28535366936244
1100.0657692151144,71.24682709770985
1090.2799568530172,71.21067970198153
1079.3114043148234,71.17128812256468
1069.1473331078887,71.1340513712782
1058.5573207559064,71.09579875139451
1049.798383332789,71.06352188428755
1040.4541178410873,71.03020113419807
1031.4256311897188,70.9975190697923
1021.4475008957088,70.96168727078289
1011.4547901898623,70.92574046212995
1001.5862886458635,70.89044912099088
992.2984758820385,70.85650956129257
982.8754210146144,70.82391408476806
973.3726593144238,70.78883480763264
962.8833319339901,70.75071441124747
953.3940532794222,70.71766478519204
943.3970595560968,70.6814811308735
931.8518896857277,70.63998554969731
922.278149779886,70.6050663799011
913.1036941884086,70.57264540497687
902.9018750693649,70.53543188712523
893.3002925049514,70.50116177409954
883.3705780785531,70.46568645659742
873.1389911584556,70.4290607759737
862.0022651925683,70.38995982420796
853.0700503829867,70.35784272219084
843.9938699323684,70.3254082494308
834.3427789434791,70.2915816947475
824.7841451410204,70.25837016302322
816.2956877034158,70.22808651730436
808.3078048406169,70.19982672317256
799.7180700562894,70.1701910829549
790.2853628126904,70.13536672098769
782.3561469623819,70.10755500524402
773.6158938547596,70.07684555289116
763.8318275790662,70.04174437064404
754.2570001324639,70.0079411226538
744.445320381783,69.97345484943502
734.6474191918969,69.9392776209703
725.5054292678833,69.90730659877335
717.0662715323269,69.87763915488672
707.8523207129911,69.84473921067827
699.7748255115002,69.81645465921997
689.1983865583315,69.77954750802185
680.8314140839502,69.7499384313699
672.1163404807448,69.71996071212062
662.6774052120745,69.68642874571817
652.7284317594022,69.65188346665627
643.051180656068,69.61802492089278
634.0262300288305,69.58618161040914
623.9101758077741,69.550805539262
614.0983148086816,69.51686275242187
604.9184459103271,69.48455105292292
595.7890342278406,69.45328896236786
585.7416068632156,69.41798124674467
575.4579340564087,69.38176881224628
565.8238508459181,69.34876738052506
556.8285977430642,69.31727054684282
546.8963539153337,69.28291656759365
537.5448967488483,69.25056556990467
527.4859019238502,69.21640465891053
517.7579522933811,69.18248035727873
508.66421687044203,69.15094041146904
499.93225345388055,69.12026113287169
490.2259595775977,69.08684218772015
480.651870559901,69.05390155990264
470.90943898260593,69.0202501586849
461.06866088230163,68.98626660968038
452.0970165999606,68.95556282640948
442.11665395926684,68.92100909935083
433.3590808119625,68.89101986268797
425.2447179723531,68.86312417481129
415.53413927927613,68.82986362564985
406.0313312737271,68.79723604399156
396.29217683617026,68.76383905278125
386.79274026025087,68.73164685039005
376.9546685470268,68.6978968465497
367.2848522942513,68.66437346384984
358.22943662758917,68.63377269199097
348.26960436441004,68.59938299216152
338.64323563408107,68.56640441079884
329.26137138158083,68.53456483802705
319.6256021289155,68.50192999000797
311.709962121211,68.47497397032974
303.06185648869723,68.44518850444166
293.9083378985524,68.41440055347495
283.5118562011048,68.378916453735
274.77418605145067,68.34897096197078
264.4670093730092,68.31411523644638
256.126964003779,68.2859536292968
248.26785059086978,68.26039235357295
239.6239721821621,68.23047632653586
231.0421954067424,68.20117125605533
222.98809385113418,68.17452061685294
213.95936643052846,68.14339828520288
204.3915804065764,68.11107667893623
195.9429074395448,68.08280231139581
