Altitude (m),Airspeed (m/s)
4266.99842041824,0.0
4266.8883800832555,1.291911665940229
4266.654332616366,2.5292967016903067
4266.225806565955,3.7752664076379006
4265.715009455569,4.421912337293096
4265.075504860841,5.080976473935779
4264.347065188922,5.952612223874808
4263.575066016056,6.97704242287604
4262.3787843817845,8.349995367820597
4261.015449544415,9.6561822388192
4259.500746426173,10.945491300119865
4257.883464438841,12.197938759864968
4256.225166697055,13.33136861356128
4253.903974446468,14.787842424734295
4251.363068330102,16.209525044872457
4248.854226671159,17.572553160912502
4245.794342843816,19.129405161549872
4242.818350165151,20.543871742904194
4239.529523007572,21.949788913779965
4236.230782724917,23.27022874161872
4232.539906006306,24.637324225627456
4227.997312258929,25.98368417502441
4224.047091340646,26.871990603079883
4220.156394737773,27.49869923535261
4215.352036191151,28.262557663633075
4210.780240169726,28.539107912457094
4206.446419256739,29.033421013613513
4201.580538540147,29.849807406719545
4196.799432842061,30.840014322806887
4192.414345967583,31.410814311103625
4187.4704060181975,31.016817686130604
4182.090501825325,31.078841224827688
4176.961650625803,31.799832207972635
4171.72884670645,32.22324415704776
4166.796457619406,32.39693392350366
4162.397623525932,32.57458892632684
4157.188714239746,33.38017125038356
4151.275996030308,34.38838410626572
4145.061985056847,35.187633056276276
4139.428845443763,35.88742113823504
4133.223926098086,36.646836556365066
4127.851435018703,37.126732830316946
4121.087955508381,38.1063635762259
4114.7082298677415,39.195426630756636
4108.977233891375,39.03896609977296
4102.6119088009,38.08048831606405
4096.852863678709,37.482902181922626
4091.6724528511986,37.20257984664442
4085.6470319600776,37.544684389630845
4080.3679118854925,38.17547991602393
4074.508735748008,39.071773860373284
4068.441542778164,40.00417762577611
4063.410869509913,40.27126964027508
4056.034897382371,40.29777616830301
4049.645582938567,41.20070899405472
4041.4536587586626,41.41642995829653
4035.4324595937505,40.912305364042986
4027.8255914635956,41.08800137645071
4019.331059385091,42.2283630457617
4010.85885826312,42.43386744679401
4002.852676439099,42.361788860775384
3994.2833336871117,42.55585525347059
3985.487591122277,42.53905614687141
3978.541624421254,41.89934393301555
3973.299706360325,41.27790230581913
3968.143498716876,40.95937957462663
3962.667444013059,40.957026275391605
3955.531491697766,41.29126038220624
3950.446773169562,41.48190008533322
3944.1453828923404,41.27435289665077
3939.067960817367,41.03008899248154
3932.5893791476265,41.09234793232818
3926.6741678370163,40.47286003597297
3921.1674456661567,39.72501174190383
3915.6167798042297,39.717182093073056
3910.048291089013,40.34081453125565
3904.4633898679167,40.61772897107711
3898.4192813206464,40.58448480328869
3893.504396652803,40.50803649848553
3887.4047966971993,40.519218804150555
3881.329515372403,40.642748479921096
3875.0181347094476,40.56703651012456
3869.780596190132,40.26388738184148
3864.4272827738896,40.27320475516397
3858.556447211653,40.43823310960037
3852.631289913319,40.22906833169647
3847.491203618236,39.85560986737417
3841.9203647971153,39.30665433897602
3836.3527872553095,38.219269288388276
3831.7085528802127,36.38500985215654
3827.278527127579,35.11874731691969
3822.1426395829767,34.59706071456668
3817.0595878502354,34.89706621191528
3812.7901289612055,35.54984260016016
3807.5069136070088,36.57368872254458
3802.1662837686017,37.438707671099806
3797.373074920848,38.03051293973234
3791.78807074856,38.423333045011596
3787.076423213817,38.312048286080284
3781.4686178825796,37.69837967493786
3776.3540414692834,37.37977937425004
3771.909127211198,37.549367034743554
3766.45961174462,37.66133345493595
3761.5410763323307,37.623988837175496
3756.128267542459,37.41773353510971
3751.554743178189,37.17939699072663
3746.106114950031,37.282459697218805
3740.7651333194226,37.73627734942866
3735.707679078914,37.980074418520275
3731.444800931029,37.92177613314651
3725.8987060645595,38.07830475882607
3720.441889253445,38.7811842365429
3715.94529825449,39.04448215234907
3710.008110993542,38.80189247286696
3705.2474384233356,39.01439972846091
3699.730678801425,39.76317895219613
3694.8522410122678,40.62867145302612
3688.7452679155394,41.75926850499063
3682.908488834277,42.75130548199362
3677.720821859315,43.47862112374397
3671.6446930123493,44.20313347685573
3666.1490797922015,44.942636865253405
3660.047599874437,45.844651397191214
3653.349263589829,46.73111191200788
3647.276092790067,47.36713766735348
3641.119483122602,47.96074437156931
3634.538068961352,48.52908298539886
3627.5620119022205,49.342709142411046
3621.326636112295,50.282498020833714
3613.6178851006553,51.332119111403685
3607.564073588699,51.93989013465993
3600.1987329181284,52.55065451558334
3593.5025975890458,53.104540010850094
3585.7048308625817,53.767521955656036
3578.695990894921,54.28013255377111
3570.2833528462797,54.87086813313388
3562.967536728829,55.378891531142635
3554.8373461300507,55.69001697684467
3547.522593954578,55.96967042017278
3539.380983152427,56.37028593202483
3532.4342433055863,56.76279842353552
3525.368785631843,57.001028491699486
3517.4764038491994,57.038467818099114
3510.181521079503,57.38934023181861
3502.9483322659507,57.9930671965651
3494.9187924591824,58.61569215552335
3486.6021355204284,59.123407937885325
3478.538297969848,59.59155321313682
3470.772325108759,60.186803031069374
3462.143084990792,60.54045996823895
3454.47641641926,60.92205738541333
3445.539439894259,61.746502918884275
3438.279953896068,62.24171911017354
3429.702768257819,62.38672287248734
3420.761673958041,62.89021137771941
3412.946929077618,63.051895202077276
3403.4528323309496,63.42321025964932
3394.0973381102085,63.19880625973983
3386.316459997557,63.63545930150543
3377.1452036006376,64.05897141576283
3368.831835425459,64.06529310728511
3359.482320908457,64.36985923863723
3351.2286765705794,64.46905850211243
3342.5501462072134,64.60515579120869
3333.3861770313233,64.95371968384788
3324.009566619061,65.37289688625324
3315.451058880426,65.54553650562
3305.456951059401,65.47471256531678
3295.77028054744,65.89378473387308
3286.1365149505436,66.29332598047861
3279.0421185968444,66.5291300398171
3269.3066696049646,66.73025891270966
3260.329187490046,66.29983067332739
3250.384986061603,66.51300022811478
3242.3007913306355,66.61421877296732
3233.971834331751,66.6163577097852
3224.681991228834,66.57356291553019
3215.318516273983,66.620262798618
3205.9655524063855,67.1551275671768
3196.3038351442665,67.44390786030073
3186.5596842300147,68.00600632829017
3178.3874605186284,68.59434463406502
3167.561469770968,69.38200068040612
3157.758875651285,69.95570581519532
3147.820909265429,70.19050353950969
3137.245708147064,70.27639745116844
3127.382437288761,70.42036982893688
3118.6437588511035,70.58562453816002
3108.5251468000934,70.38120316767872
3097.992487166077,69.68854991016023
3089.336717866361,68.8867784718201
3079.1375014847144,68.63548031454599
3069.9880710374564,67.73436027268698
3061.4530660947785,67.2958200575483
3051.069667402655,66.97772395410712
3042.8467178745195,67.03793813791577
3032.781754778698,66.89152406826082
3023.1606022361666,66.85335196160487
3014.7363224178553,66.71140561423677
3004.91119480785,66.63915183442138
2996.31119774282,66.77340971283537
2986.309251949191,67.13776520974197
2977.9471478965133,67.54246768582037
2969.496291395277,67.94985862458518
2958.931889372878,68.3465169331216
2950.1780724758282,68.75601506121033
2940.5597078697756,69.36799850859715
2930.445757029578,69.75849868933024
2920.0425038095564,69.48239995721289
2910.51797696203,69.44148651788578
2901.7475579306483,69.34693007209593
2891.687748922035,69.26096845784242
2881.662347536534,68.904441720034
2873.2787468442693,68.45746913450883
2863.773440944962,68.36587756318231
2854.2660224325955,67.64821693729776
2844.632943683304,67.41535791944045
2835.3930565565825,66.75823424184438
2826.0826206179336,66.9273352737275
2816.140127561055,66.71442908617398
2807.73673405312,66.14510720314557
2796.4984068870544,66.16601897522783
2788.140716311522,66.1427328166955
2778.8503918070346,66.38780013038928
2770.2056719185784,66.81340212381001
2760.253620984964,66.8155353209322
2751.5604006098583,67.07809775836179
2741.830934777856,67.53374467145602
2731.5813505901024,68.02690318851519
2723.1550528956577,68.43484644043905
2713.4242538288236,68.63094102388318
2704.0373036703095,68.69641985591282
2694.328030942008,69.06412777704675
2684.189155558124,69.70645064803973
2674.5205995589495,69.7124420676265
2664.528551865369,69.67275009702344
2654.6582435518503,70.28072703331398
2644.6215878007933,70.82329675755095
2634.7544941715896,71.05137513770543
2624.247825833969,70.78656821161925
2615.4222458070144,70.50926803780878
2605.150644019246,70.5167520155788
2594.9134783344343,70.75009638602681
2584.5345292137936,70.83431591955677
2575.370799818076,70.75469783377733
2564.842400881462,70.60538964724239
2554.743316831067,70.79013534747243
2545.933511098847,70.89494026755727
2534.709026937373,70.46551455326014
2526.0978587502614,70.38478228394357
2515.9155831625685,70.3072489133275
2505.7401951635256,70.45991519508169
2495.879352751188,70.51946755791542
2486.2513441387564,69.95543226280128
2478.1294845342636,70.09769988211372
2469.3142640525475,70.10421918890866
2460.1368949925527,69.31132692615377
2450.769262268208,69.35090104733149
2442.7803887659684,69.0954836144622
2433.9895049082115,69.02867256113973
2425.1667814841494,69.27991422291645
2414.5318955462426,68.66485741747677
2405.288003775291,68.49977984266597
2395.418121512048,68.3262250029816
2385.6756115853786,68.57426998057643
2374.773150516674,69.00718242908637
2364.9885309292004,69.00069347194233
2356.5105269486085,68.81561268971072
2346.218450813554,68.50027292477073
2336.773774909787,68.50995183552007
2326.9577944381163,68.69697866264634
2317.5042008478194,68.86673081902852
2309.347997496836,68.881739110553
2299.2650428246707,68.65135967536942
2290.9266227846965,68.4226484797559
2280.543511535041,68.42712930586316
2271.0063627511263,68.46028129362617
2262.1634459067136,68.07798737362644
2252.638952215202,67.80756118369247
2242.2728495215997,67.69329253363036
2232.8912130678073,67.60960948966131
2223.4534319806844,66.97160156473802
2215.2860915306956,66.62255677539311
2205.3385978573933,66.71172502589944
2196.2633195547387,66.37302497647073
2188.4888890786096,66.33518382152486
2179.1983577329665,66.16493829909368
2170.316254065372,66.32989401179981
2162.1828110907227,66.38985846502531
2154.3898139102384,65.85747969438196
2145.3616212792695,65.81563796197183
2135.9715706966817,65.73464920138022
2128.0518400864676,65.74729446774401
2118.6249669315293,66.07219241231476
2110.0500713316724,66.39875176697922
2101.1982853487134,66.57549993404766
2093.2350366190076,66.49927256288898
2084.0182308452204,66.18245794775211
2074.9362676972523,66.03324750811669
2065.1456256182864,66.16214273058064
2056.51370425988,65.93477127111889
2048.8845529062673,65.65044339757576
2038.8355001211166,65.35891017762847
2029.9039662359282,65.50941818892538
2021.8163825199008,65.54570251398405
2011.6035037888214,65.25400714823819
2003.2091554254293,65.26115132349227
1993.7601740891114,65.54133157453721
1984.2592202173546,65.7375136545259
1975.5180991655216,65.84233095033619
1966.7427224228159,66.07955851988388
1958.1449172375724,66.4583003260827
1948.1647904720157,67.00564096341012
1939.3393581155688,67.36613992915737
1929.0915668951347,67.3132106642758
1919.8530963947996,67.3224216207212
1911.515370797366,67.24962114656046
1901.3081278493628,67.21652783087488
1893.4602333744988,67.42875963482827
1884.4579838048667,67.58301035566873
1874.0682611875236,67.20866158628158
1865.5419052047655,66.81607757788964
1856.4703251840547,66.71183511892134
1847.3402373362333,66.78063262835315
1837.2583951903507,66.70532058126584
1828.66201795917,66.41058484123742
1818.767116705887,66.0783529951917
1810.0412399237975,66.08021758062819
1800.4326914260164,66.31553852336098
1791.9554189657792,66.39893440589042
1783.7696012193337,66.31328623268605
1773.686230584979,66.20964716620148
1766.65203268826,66.25723619149859
1757.8498555589467,66.41888943122567
1749.3334804102778,66.31956027589135
1740.543578363955,66.0851929683808
1730.2437569238245,66.14589731546499
1721.1002016616985,66.28930199353357
1711.944839716889,66.32177797285915
1703.412176256068,66.32977235585649
1694.932697196491,66.41900818876837
1686.33496202901,66.635234504149
1675.9491026848555,67.03621182755732
1667.3675027070567,67.31275640446371
1657.8990921266377,67.34373449481215
1648.5320692826062,67.21012826396007
1638.8187093511224,67.21795080507043
1630.6652579009533,67.38792348874976
1620.6015833877027,67.58645501022819
1610.7355115171522,67.30169392944318
1602.3154587829486,66.96530385122747
1593.0759694408625,67.02501208775737
1584.8892339561135,67.06572489752473
1575.4437305806205,66.8288859789465
1565.9528394956142,66.6417895881892
1555.673411658965,66.8025791808844
1546.7958604535088,66.85533403208417
1537.2134387418628,66.56237780511572
1528.408641334623,66.29660402533322
1518.4185433536768,66.23448499922806
1509.1445501819253,66.27608305118979
1500.1271713310853,66.19617581009376
1490.9042811393738,65.9901745196708
1481.6797598050907,65.97171114907582
1472.3305329186842,65.98698745225045
1463.5570398122072,65.80543740436869
1454.5610566353425,65.62787591141883
1445.5516422605142,65.56422778168965
1436.671555721201,65.7201827570366
1427.4064921904355,65.81042289547437
1417.9561757147312,65.599806491611
1408.5260503385216,65.40563292247732
1401.0895232465118,65.42642221743145
1391.8840444386005,65.7149585876282
1382.7460133489221,66.1405973050269
1373.4846229152754,66.50879277709376
1363.9466116921976,66.55487860810459
1355.1675386969,66.58079623187982
1346.9375183982775,66.9865526425768
1338.152392364107,67.5058584918944
1329.014721751213,67.9062077186494
1319.3518368741497,68.04715475480032
1309.9573798701167,68.26209652821508
1300.805086331442,68.70129007039554
1291.1070554442704,68.78771274264086
1281.835922414437,68.93508241602188
1272.0550922537223,69.29440323898952
1262.8332308009267,69.68403930108825
1253.943917335011,69.89074193402162
1246.0146524412557,69.87430905532061
1237.219663573429,70.05703002755826
1227.2278527179733,70.31476751963474
1217.9485224504024,70.27528256526838
1207.5401079170406,70.16674816104839
1198.7195156682283,70.08198765308735
1189.4134073723108,70.19827541572586
1180.8598229056224,70.25131880088588
1171.8527539614588,70.02093365793854
1162.1753480462357,69.85603637496021
1151.3290085513145,69.95874233576603
1142.2284667352214,70.16896055852143
1132.9750001560897,70.43878100088321
1122.5716870008036,70.70749908085142
1112.8769385395572,70.83814664279511
1103.2160500083119,70.82972872015901
1092.3361548501998,70.82732269930038
1082.7424166770652,71.02588020231788
1073.8084325464442,71.37775217647307
1063.841660370119,71.67351268508769
1054.4626216096804,71.76629795649846
1044.2845599129796,71.72582023078984
1033.938204454258,71.94586975113178
1023.3705859566107,72.16470420594239
1014.0359421977773,72.09484016906883
1004.1781431715935,71.98771738608188
994.0384514983743,72.02080728416382
983.8868174813688,72.08714966365211
973.3382049556822,71.87283212122414
964.1740629095584,71.6524724865467
954.1677093515173,71.59035257502705
944.620325319469,71.39407436960668
934.6751616150141,71.09487492934379
924.8580922083929,70.85721091558803
914.8430225690827,70.83105870638069
905.0448650317267,70.82570946078827
894.5744846099988,70.60114407016319
885.7421765392646,70.39422855572214
876.7353511201218,70.28295908155881
867.3907442409545,70.270700982549
857.1369285201654,70.18786600107154
847.8090471085161,69.88811738818316
838.5611196756363,69.44891104804518
829.2920828657225,69.12113445888423
820.0399420633912,69.04713300103033
810.8725337889045,69.06974392410987
800.7737756688148,68.97962799802391
792.0545742986724,68.69896679343363
782.3158697616309,68.63335814395329
772.9021050287411,68.78343636162774
763.6500915400684,68.76361596818997
754.7401562463492,68.74507831135817
745.205821512267,68.86539154431841
735.8787216590717,69.03523755055494
727.0440814075992,69.10015055335508
717.0988455228508,69.19714832539177
707.3803413026035,69.43035215671266
698.4259696323425,69.49836646955607
689.1370281819254,69.5256331850789
679.3438952760771,69.6356912127025
670.3262082338333,69.85828598750076
661.274475148879,70.01049413698901
651.535678928718,70.03090336144493
641.9708287529647,70.01277737986625
632.4440004983917,70.08470035233198
622.222801681608,70.274911925732
612.6740377135575,70.46264621829336
602.1491744313389,70.42942345424916
593.2616894319654,70.25168872163711
583.3787636104971,70.19280575281387
573.7235391922295,70.1626073211196
563.8488580314443,69.92975621661836
554.3130606813356,69.51305332873754
544.9072277117521,69.18162798548937
535.4864409044385,69.10472534000516
526.4855209654197,69.00788106761041
516.7814149446785,68.70178387774274
507.5341595048085,68.41060058082925
497.62071800697595,68.2433463197224
488.5593745224178,68.00513696872235
479.8377241557464,67.70178726870436
471.036042412743,67.51546731292628
461.22027729731053,67.39828714474594
452.20958509575576,67.35471738163707
443.51955488789827,67.29630045977747
434.20977921411395,67.21527920469322
425.1174062034115,67.11866861151294
415.3431556066498,67.00035343450243
406.1154443509877,66.93691727056591
397.282160368748,66.96478688805833
387.8749916544184,67.08741743464364
379.56417486444116,67.10562665568482
370.7999900644645,67.01029547503883
361.4062894433737,66.9437313402364
352.0784666929394,66.95510755844667
342.77151811122894,67.07494094917547
333.79928993806243,67.10981784599335
324.66738802939653,66.88795959733369
315.3937140936032,66.78155904669102
306.1447265278548,66.74823494368502
297.1303253248334,66.68409574797812
287.76749342586845,66.43377923068451
279.1046552285552,66.21572740576315
269.29715078882873,66.13844776761816
260.9250929104164,66.01296535009543
251.93177294917405,65.82684819877745
241.42563738115132,65.65779858449089
232.66805597301573,65.65040031458508
223.3252869648859,65.69519663648046
214.34683216456324,65.64488905240049
205.45674883387983,65.64991776776003
196.26450710371137,65.71435962066894
